#wavelength = 0.3494
#qmax = 15.0
#qmin = 0
#Qdamp = 0.04373
#Lorch = off
#Q, intensity(inelacstic), <f^2>, <f>^2
#
5.0000e-02,1.9439e-02,1.3233e+00,9.8722e-01
1.0000e-01,3.8878e-02,1.3215e+00,9.8593e-01
1.5000e-01,5.8317e-02,1.3186e+00,9.8378e-01
2.0000e-01,7.7755e-02,1.3145e+00,9.8080e-01
2.5000e-01,9.7194e-02,1.3093e+00,9.7700e-01
3.0000e-01,1.1663e-01,1.3030e+00,9.7240e-01
3.5000e-01,1.3607e-01,1.2957e+00,9.6704e-01
4.0000e-01,1.5551e-01,1.2874e+00,9.6094e-01
4.5000e-01,1.7495e-01,1.2782e+00,9.5413e-01
5.0000e-01,1.9439e-01,1.2681e+00,9.4667e-01
5.5000e-01,2.1383e-01,1.2573e+00,9.3858e-01
6.0000e-01,2.2349e-01,1.2458e+00,9.2991e-01
6.5000e-01,2.2465e-01,1.2336e+00,9.2071e-01
7.0000e-01,2.2552e-01,1.2208e+00,9.1101e-01
7.5000e-01,2.3104e-01,1.2075e+00,9.0087e-01
8.0000e-01,2.3997e-01,1.1938e+00,8.9032e-01
8.5000e-01,2.5490e-01,1.1797e+00,8.7941e-01
9.0000e-01,2.7210e-01,1.1652e+00,8.6818e-01
9.5000e-01,2.7788e-01,1.1504e+00,8.5667e-01
1.0000e+00,2.9077e-01,1.1354e+00,8.4492e-01
1.0500e+00,3.0804e-01,1.1202e+00,8.3297e-01
1.1000e+00,3.2771e-01,1.1049e+00,8.2086e-01
1.1500e+00,3.5596e-01,1.0894e+00,8.0861e-01
1.2000e+00,3.9098e-01,1.0739e+00,7.9626e-01
1.2500e+00,4.3518e-01,1.0584e+00,7.8384e-01
1.3000e+00,4.9408e-01,1.0428e+00,7.7137e-01
1.3500e+00,5.5989e-01,1.0272e+00,7.5889e-01
1.4000e+00,6.3368e-01,1.0117e+00,7.4641e-01
1.4500e+00,7.2593e-01,9.9625e-01,7.3396e-01
1.5000e+00,8.2383e-01,9.8087e-01,7.2155e-01
1.5500e+00,9.2547e-01,9.6559e-01,7.0920e-01
1.6000e+00,1.0226e+00,9.5043e-01,6.9694e-01
1.6500e+00,1.1101e+00,9.3539e-01,6.8477e-01
1.7000e+00,1.1833e+00,9.2049e-01,6.7270e-01
1.7500e+00,1.2445e+00,9.0575e-01,6.6075e-01
1.8000e+00,1.2729e+00,8.9118e-01,6.4893e-01
1.8500e+00,1.2688e+00,8.7677e-01,6.3725e-01
1.9000e+00,1.2432e+00,8.6255e-01,6.2571e-01
1.9500e+00,1.2032e+00,8.4851e-01,6.1432e-01
2.0000e+00,1.1600e+00,8.3467e-01,6.0309e-01
2.0500e+00,1.0792e+00,8.2103e-01,5.9203e-01
2.1000e+00,9.9600e-01,8.0760e-01,5.8112e-01
2.1500e+00,9.1556e-01,7.9437e-01,5.7039e-01
2.2000e+00,8.3976e-01,7.8136e-01,5.5983e-01
2.2500e+00,7.6764e-01,7.6856e-01,5.4945e-01
2.3000e+00,7.0853e-01,7.5598e-01,5.3924e-01
2.3500e+00,6.5368e-01,7.4362e-01,5.2921e-01
2.4000e+00,6.0968e-01,7.3147e-01,5.1935e-01
2.4500e+00,5.7591e-01,7.1954e-01,5.0968e-01
2.5000e+00,5.5049e-01,7.0784e-01,5.0018e-01
2.5500e+00,5.2488e-01,6.9635e-01,4.9086e-01
2.6000e+00,5.0466e-01,6.8508e-01,4.8172e-01
2.6500e+00,4.9149e-01,6.7403e-01,4.7275e-01
2.7000e+00,4.8290e-01,6.6319e-01,4.6396e-01
2.7500e+00,4.7622e-01,6.5256e-01,4.5534e-01
2.8000e+00,4.7045e-01,6.4215e-01,4.4690e-01
2.8500e+00,4.6651e-01,6.3194e-01,4.3862e-01
2.9000e+00,4.6076e-01,6.2194e-01,4.3051e-01
2.9500e+00,4.6116e-01,6.1215e-01,4.2257e-01
3.0000e+00,4.5927e-01,6.0255e-01,4.1479e-01
3.0500e+00,4.5361e-01,5.9316e-01,4.0717e-01
3.1000e+00,4.5288e-01,5.8395e-01,3.9971e-01
3.1500e+00,4.5375e-01,5.7494e-01,3.9241e-01
3.2000e+00,4.5608e-01,5.6611e-01,3.8526e-01
3.2500e+00,4.5946e-01,5.5747e-01,3.7826e-01
3.3000e+00,4.6449e-01,5.4900e-01,3.7141e-01
3.3500e+00,4.6903e-01,5.4071e-01,3.6470e-01
3.4000e+00,4.7051e-01,5.3260e-01,3.5814e-01
3.4500e+00,4.7079e-01,5.2465e-01,3.5172e-01
3.5000e+00,4.7559e-01,5.1686e-01,3.4543e-01
3.5500e+00,4.7806e-01,5.0924e-01,3.3928e-01
3.6000e+00,4.7408e-01,5.0177e-01,3.3326e-01
3.6500e+00,4.7317e-01,4.9445e-01,3.2736e-01
3.7000e+00,4.7111e-01,4.8727e-01,3.2160e-01
3.7500e+00,4.6909e-01,4.8025e-01,3.1595e-01
3.8000e+00,4.6427e-01,4.7336e-01,3.1043e-01
3.8500e+00,4.6099e-01,4.6661e-01,3.0502e-01
3.9000e+00,4.5595e-01,4.5999e-01,2.9973e-01
3.9500e+00,4.5240e-01,4.5350e-01,2.9455e-01
4.0000e+00,4.4709e-01,4.4713e-01,2.8948e-01
4.0500e+00,4.4367e-01,4.4089e-01,2.8452e-01
4.1000e+00,4.4166e-01,4.3476e-01,2.7966e-01
4.1500e+00,4.3680e-01,4.2874e-01,2.7490e-01
4.2000e+00,4.3307e-01,4.2284e-01,2.7024e-01
4.2500e+00,4.3191e-01,4.1705e-01,2.6568e-01
4.3000e+00,4.3116e-01,4.1136e-01,2.6122e-01
4.3500e+00,4.3132e-01,4.0577e-01,2.5684e-01
4.4000e+00,4.3295e-01,4.0028e-01,2.5256e-01
4.4500e+00,4.3335e-01,3.9488e-01,2.4837e-01
4.5000e+00,4.3589e-01,3.8958e-01,2.4426e-01
4.5500e+00,4.3586e-01,3.8437e-01,2.4023e-01
4.6000e+00,4.3517e-01,3.7925e-01,2.3629e-01
4.6500e+00,4.3431e-01,3.7421e-01,2.3243e-01
4.7000e+00,4.3352e-01,3.6925e-01,2.2864e-01
4.7500e+00,4.3346e-01,3.6437e-01,2.2493e-01
4.8000e+00,4.3352e-01,3.5958e-01,2.2130e-01
4.8500e+00,4.3042e-01,3.5486e-01,2.1774e-01
4.9000e+00,4.2577e-01,3.5021e-01,2.1425e-01
4.9500e+00,4.2174e-01,3.4563e-01,2.1083e-01
5.0000e+00,4.1708e-01,3.4113e-01,2.0748e-01
5.0500e+00,4.0998e-01,3.3669e-01,2.0419e-01
5.1000e+00,4.0183e-01,3.3232e-01,2.0097e-01
5.1500e+00,3.9309e-01,3.2802e-01,1.9781e-01
5.2000e+00,3.8143e-01,3.2378e-01,1.9471e-01
5.2500e+00,3.6809e-01,3.1960e-01,1.9168e-01
5.3000e+00,3.5248e-01,3.1548e-01,1.8870e-01
5.3500e+00,3.3729e-01,3.1142e-01,1.8578e-01
5.4000e+00,3.2211e-01,3.0742e-01,1.8292e-01
5.4500e+00,3.0862e-01,3.0348e-01,1.8011e-01
5.5000e+00,2.9567e-01,2.9959e-01,1.7736e-01
5.5500e+00,2.8507e-01,2.9576e-01,1.7466e-01
5.6000e+00,2.7612e-01,2.9198e-01,1.7201e-01
5.6500e+00,2.6837e-01,2.8825e-01,1.6941e-01
5.7000e+00,2.6251e-01,2.8457e-01,1.6686e-01
5.7500e+00,2.5742e-01,2.8095e-01,1.6436e-01
5.8000e+00,2.5309e-01,2.7737e-01,1.6191e-01
5.8500e+00,2.5033e-01,2.7385e-01,1.5950e-01
5.9000e+00,2.4805e-01,2.7037e-01,1.5714e-01
5.9500e+00,2.4634e-01,2.6694e-01,1.5482e-01
6.0000e+00,2.4431e-01,2.6356e-01,1.5255e-01
6.0500e+00,2.4281e-01,2.6022e-01,1.5031e-01
6.1000e+00,2.4180e-01,2.5693e-01,1.4812e-01
6.1500e+00,2.4050e-01,2.5368e-01,1.4597e-01
6.2000e+00,2.3920e-01,2.5047e-01,1.4386e-01
6.2500e+00,2.3795e-01,2.4731e-01,1.4179e-01
6.3000e+00,2.3678e-01,2.4419e-01,1.3976e-01
6.3500e+00,2.3563e-01,2.4112e-01,1.3776e-01
6.4000e+00,2.3384e-01,2.3808e-01,1.3580e-01
6.4500e+00,2.3193e-01,2.3509e-01,1.3388e-01
6.5000e+00,2.2978e-01,2.3213e-01,1.3199e-01
6.5500e+00,2.2760e-01,2.2922e-01,1.3013e-01
6.6000e+00,2.2509e-01,2.2634e-01,1.2831e-01
6.6500e+00,2.2237e-01,2.2351e-01,1.2652e-01
6.7000e+00,2.1972e-01,2.2071e-01,1.2476e-01
6.7500e+00,2.1643e-01,2.1795e-01,1.2304e-01
6.8000e+00,2.1284e-01,2.1523e-01,1.2134e-01
6.8500e+00,2.0941e-01,2.1255e-01,1.1968e-01
6.9000e+00,2.0577e-01,2.0990e-01,1.1805e-01
6.9500e+00,2.0188e-01,2.0729e-01,1.1644e-01
7.0000e+00,1.9813e-01,2.0471e-01,1.1486e-01
7.0500e+00,1.9409e-01,2.0217e-01,1.1331e-01
7.1000e+00,1.9031e-01,1.9967e-01,1.1179e-01
7.1500e+00,1.8699e-01,1.9720e-01,1.1030e-01
7.2000e+00,1.8369e-01,1.9476e-01,1.0883e-01
7.2500e+00,1.8091e-01,1.9236e-01,1.0738e-01
7.3000e+00,1.7844e-01,1.8999e-01,1.0596e-01
7.3500e+00,1.7637e-01,1.8765e-01,1.0457e-01
7.4000e+00,1.7473e-01,1.8535e-01,1.0320e-01
7.4500e+00,1.7337e-01,1.8308e-01,1.0185e-01
7.5000e+00,1.7252e-01,1.8084e-01,1.0053e-01
7.5500e+00,1.7168e-01,1.7863e-01,9.9232e-02
7.6000e+00,1.7117e-01,1.7645e-01,9.7954e-02
7.6500e+00,1.7067e-01,1.7431e-01,9.6698e-02
7.7000e+00,1.7028e-01,1.7219e-01,9.5464e-02
7.7500e+00,1.6983e-01,1.7011e-01,9.4250e-02
7.8000e+00,1.6921e-01,1.6805e-01,9.3057e-02
7.8500e+00,1.6851e-01,1.6602e-01,9.1885e-02
7.9000e+00,1.6762e-01,1.6403e-01,9.0732e-02
7.9500e+00,1.6664e-01,1.6206e-01,8.9599e-02
8.0000e+00,1.6517e-01,1.6012e-01,8.8485e-02
8.0500e+00,1.6380e-01,1.5821e-01,8.7389e-02
8.1000e+00,1.6198e-01,1.5632e-01,8.6312e-02
8.1500e+00,1.6016e-01,1.5447e-01,8.5253e-02
8.2000e+00,1.5833e-01,1.5264e-01,8.4212e-02
8.2500e+00,1.5638e-01,1.5083e-01,8.3188e-02
8.3000e+00,1.5470e-01,1.4906e-01,8.2181e-02
8.3500e+00,1.5292e-01,1.4731e-01,8.1190e-02
8.4000e+00,1.5104e-01,1.4558e-01,8.0216e-02
8.4500e+00,1.4923e-01,1.4388e-01,7.9259e-02
8.5000e+00,1.4761e-01,1.4221e-01,7.8317e-02
8.5500e+00,1.4578e-01,1.4056e-01,7.7390e-02
8.6000e+00,1.4401e-01,1.3893e-01,7.6479e-02
8.6500e+00,1.4207e-01,1.3733e-01,7.5582e-02
8.7000e+00,1.4034e-01,1.3575e-01,7.4700e-02
8.7500e+00,1.3852e-01,1.3420e-01,7.3833e-02
8.8000e+00,1.3667e-01,1.3267e-01,7.2980e-02
8.8500e+00,1.3487e-01,1.3116e-01,7.2140e-02
8.9000e+00,1.3304e-01,1.2967e-01,7.1314e-02
8.9500e+00,1.3103e-01,1.2821e-01,7.0502e-02
9.0000e+00,1.2903e-01,1.2677e-01,6.9702e-02
9.0500e+00,1.2690e-01,1.2535e-01,6.8916e-02
9.1000e+00,1.2491e-01,1.2395e-01,6.8142e-02
9.1500e+00,1.2287e-01,1.2257e-01,6.7380e-02
9.2000e+00,1.2079e-01,1.2121e-01,6.6631e-02
9.2500e+00,1.1871e-01,1.1987e-01,6.5893e-02
9.3000e+00,1.1675e-01,1.1856e-01,6.5167e-02
9.3500e+00,1.1491e-01,1.1726e-01,6.4453e-02
9.4000e+00,1.1318e-01,1.1598e-01,6.3750e-02
9.4500e+00,1.1141e-01,1.1472e-01,6.3058e-02
9.5000e+00,1.0975e-01,1.1348e-01,6.2377e-02
9.5500e+00,1.0824e-01,1.1226e-01,6.1707e-02
9.6000e+00,1.0674e-01,1.1106e-01,6.1047e-02
9.6500e+00,1.0547e-01,1.0988e-01,6.0397e-02
9.7000e+00,1.0421e-01,1.0871e-01,5.9758e-02
9.7500e+00,1.0309e-01,1.0756e-01,5.9128e-02
9.8000e+00,1.0201e-01,1.0643e-01,5.8508e-02
9.8500e+00,1.0098e-01,1.0531e-01,5.7898e-02
9.9000e+00,9.9998e-02,1.0421e-01,5.7297e-02
9.9500e+00,9.9062e-02,1.0313e-01,5.6706e-02
1.0000e+01,9.8149e-02,1.0207e-01,5.6123e-02
1.0050e+01,9.7312e-02,1.0102e-01,5.5549e-02
1.0100e+01,9.6509e-02,9.9981e-02,5.4984e-02
1.0150e+01,9.5698e-02,9.8963e-02,5.4428e-02
1.0200e+01,9.4889e-02,9.7959e-02,5.3880e-02
1.0250e+01,9.4029e-02,9.6970e-02,5.3340e-02
1.0300e+01,9.3226e-02,9.5996e-02,5.2809e-02
1.0350e+01,9.2380e-02,9.5037e-02,5.2285e-02
1.0400e+01,9.1546e-02,9.4091e-02,5.1769e-02
1.0450e+01,9.0703e-02,9.3160e-02,5.1261e-02
1.0500e+01,8.9869e-02,9.2242e-02,5.0760e-02
1.0550e+01,8.9038e-02,9.1338e-02,5.0267e-02
1.0600e+01,8.8188e-02,9.0447e-02,4.9781e-02
1.0650e+01,8.7258e-02,8.9569e-02,4.9302e-02
1.0700e+01,8.6418e-02,8.8704e-02,4.8831e-02
1.0750e+01,8.5540e-02,8.7852e-02,4.8366e-02
1.0800e+01,8.4713e-02,8.7012e-02,4.7908e-02
1.0850e+01,8.3839e-02,8.6184e-02,4.7456e-02
1.0900e+01,8.2982e-02,8.5368e-02,4.7011e-02
1.0950e+01,8.2180e-02,8.4564e-02,4.6572e-02
1.1000e+01,8.1400e-02,8.3772e-02,4.6140e-02
1.1050e+01,8.0590e-02,8.2990e-02,4.5714e-02
1.1100e+01,7.9781e-02,8.2220e-02,4.5294e-02
1.1150e+01,7.9072e-02,8.1461e-02,4.4880e-02
1.1200e+01,7.8296e-02,8.0713e-02,4.4471e-02
1.1250e+01,7.7714e-02,7.9975e-02,4.4069e-02
1.1300e+01,7.7127e-02,7.9248e-02,4.3672e-02
1.1350e+01,7.6531e-02,7.8531e-02,4.3280e-02
1.1400e+01,7.6023e-02,7.7823e-02,4.2894e-02
1.1450e+01,7.5643e-02,7.7126e-02,4.2514e-02
1.1500e+01,7.5249e-02,7.6439e-02,4.2138e-02
1.1550e+01,7.4955e-02,7.5760e-02,4.1768e-02
1.1600e+01,7.4696e-02,7.5092e-02,4.1403e-02
1.1650e+01,7.4493e-02,7.4432e-02,4.1043e-02
1.1700e+01,7.4334e-02,7.3781e-02,4.0687e-02
1.1750e+01,7.4181e-02,7.3139e-02,4.0337e-02
1.1800e+01,7.4063e-02,7.2506e-02,3.9991e-02
1.1850e+01,7.3962e-02,7.1881e-02,3.9650e-02
1.1900e+01,7.3895e-02,7.1265e-02,3.9313e-02
1.1950e+01,7.3857e-02,7.0657e-02,3.8981e-02
1.2000e+01,7.3753e-02,7.0057e-02,3.8653e-02
1.2050e+01,7.3685e-02,6.9465e-02,3.8330e-02
1.2100e+01,7.3586e-02,6.8880e-02,3.8010e-02
1.2150e+01,7.3671e-02,6.8303e-02,3.7695e-02
1.2200e+01,7.3837e-02,6.7734e-02,3.7384e-02
1.2250e+01,7.3500e-02,6.7172e-02,3.7077e-02
1.2300e+01,7.2935e-02,6.6617e-02,3.6774e-02
1.2350e+01,7.2386e-02,6.6069e-02,3.6475e-02
1.2400e+01,7.1858e-02,6.5528e-02,3.6180e-02
1.2450e+01,7.1299e-02,6.4994e-02,3.5888e-02
1.2500e+01,7.0694e-02,6.4467e-02,3.5600e-02
1.2550e+01,6.9994e-02,6.3946e-02,3.5316e-02
1.2600e+01,6.9274e-02,6.3432e-02,3.5035e-02
1.2650e+01,6.8486e-02,6.2924e-02,3.4757e-02
1.2700e+01,6.7696e-02,6.2422e-02,3.4483e-02
1.2750e+01,6.6910e-02,6.1926e-02,3.4213e-02
1.2800e+01,6.6069e-02,6.1436e-02,3.3946e-02
1.2850e+01,6.5207e-02,6.0953e-02,3.3682e-02
1.2900e+01,6.4342e-02,6.0474e-02,3.3421e-02
1.2950e+01,6.3513e-02,6.0002e-02,3.3163e-02
1.3000e+01,6.2686e-02,5.9535e-02,3.2909e-02
1.3050e+01,6.1717e-02,5.9074e-02,3.2657e-02
1.3100e+01,6.0837e-02,5.8617e-02,3.2409e-02
1.3150e+01,5.9966e-02,5.8167e-02,3.2163e-02
1.3200e+01,5.9150e-02,5.7721e-02,3.1921e-02
1.3250e+01,5.8391e-02,5.7280e-02,3.1681e-02
1.3300e+01,5.7661e-02,5.6845e-02,3.1444e-02
1.3350e+01,5.6973e-02,5.6414e-02,3.1210e-02
1.3400e+01,5.6276e-02,5.5988e-02,3.0978e-02
1.3450e+01,5.5644e-02,5.5566e-02,3.0749e-02
1.3500e+01,5.4984e-02,5.5150e-02,3.0523e-02
1.3550e+01,5.4313e-02,5.4738e-02,3.0299e-02
1.3600e+01,5.3714e-02,5.4330e-02,3.0078e-02
1.3650e+01,5.3100e-02,5.3927e-02,2.9859e-02
1.3700e+01,5.2503e-02,5.3527e-02,2.9643e-02
1.3750e+01,5.1989e-02,5.3133e-02,2.9429e-02
1.3800e+01,5.1474e-02,5.2742e-02,2.9217e-02
1.3850e+01,5.0760e-02,5.2355e-02,2.9008e-02
1.3900e+01,5.0460e-02,5.1973e-02,2.8801e-02
1.3950e+01,5.0041e-02,5.1594e-02,2.8597e-02
1.4000e+01,4.9625e-02,5.1220e-02,2.8394e-02
1.4050e+01,4.9187e-02,5.0849e-02,2.8194e-02
1.4100e+01,4.8778e-02,5.0481e-02,2.7996e-02
1.4150e+01,4.8395e-02,5.0118e-02,2.7800e-02
1.4200e+01,4.8030e-02,4.9758e-02,2.7606e-02
1.4250e+01,4.7652e-02,4.9401e-02,2.7414e-02
1.4300e+01,4.7300e-02,4.9048e-02,2.7224e-02
1.4350e+01,4.6917e-02,4.8699e-02,2.7036e-02
1.4400e+01,4.6591e-02,4.8353e-02,2.6850e-02
1.4450e+01,4.6256e-02,4.8010e-02,2.6666e-02
1.4500e+01,4.5921e-02,4.7670e-02,2.6484e-02
1.4550e+01,4.5597e-02,4.7334e-02,2.6304e-02
1.4600e+01,4.5258e-02,4.7001e-02,2.6125e-02
1.4650e+01,4.4925e-02,4.6671e-02,2.5949e-02
1.4700e+01,4.4503e-02,4.6344e-02,2.5774e-02
1.4750e+01,4.4248e-02,4.6019e-02,2.5601e-02
1.4800e+01,4.3927e-02,4.5698e-02,2.5429e-02
1.4850e+01,4.3572e-02,4.5380e-02,2.5260e-02
1.4900e+01,4.3155e-02,4.5065e-02,2.5092e-02
1.4950e+01,4.2860e-02,4.4752e-02,2.4925e-02
1.5000e+01,4.2499e-02,4.4442e-02,2.4760e-02
1.5050e+01,4.2113e-02,4.4135e-02,2.4597e-02
1.5100e+01,4.1727e-02,4.3831e-02,2.4436e-02
1.5150e+01,4.1302e-02,4.3529e-02,2.4276e-02
1.5200e+01,4.0887e-02,4.3230e-02,2.4117e-02
1.5250e+01,4.0469e-02,4.2934e-02,2.3960e-02
1.5300e+01,4.0015e-02,4.2640e-02,2.3804e-02
1.5350e+01,3.9648e-02,4.2348e-02,2.3650e-02
1.5400e+01,3.9206e-02,4.2059e-02,2.3498e-02
1.5450e+01,3.8832e-02,4.1772e-02,2.3346e-02
1.5500e+01,3.8406e-02,4.1488e-02,2.3197e-02
1.5550e+01,3.7963e-02,4.1206e-02,2.3048e-02
1.5600e+01,3.7534e-02,4.0927e-02,2.2901e-02
1.5650e+01,3.7075e-02,4.0649e-02,2.2755e-02
1.5700e+01,3.6597e-02,4.0374e-02,2.2611e-02
1.5750e+01,3.6154e-02,4.0101e-02,2.2467e-02
1.5800e+01,3.5686e-02,3.9831e-02,2.2326e-02
1.5850e+01,3.5209e-02,3.9562e-02,2.2185e-02
1.5900e+01,3.4744e-02,3.9296e-02,2.2046e-02
1.5950e+01,3.4273e-02,3.9031e-02,2.1907e-02
1.6000e+01,3.3768e-02,3.8769e-02,2.1770e-02
1.6050e+01,3.3301e-02,3.8509e-02,2.1635e-02
1.6100e+01,3.2796e-02,3.8251e-02,2.1500e-02
1.6150e+01,3.2312e-02,3.7995e-02,2.1367e-02
1.6200e+01,3.1792e-02,3.7741e-02,2.1234e-02
1.6250e+01,3.1265e-02,3.7488e-02,2.1103e-02
1.6300e+01,3.0697e-02,3.7238e-02,2.0973e-02
1.6350e+01,3.0169e-02,3.6990e-02,2.0844e-02
1.6400e+01,2.9551e-02,3.6743e-02,2.0716e-02
1.6450e+01,2.8939e-02,3.6498e-02,2.0590e-02
1.6500e+01,2.8256e-02,3.6256e-02,2.0464e-02
1.6550e+01,2.7578e-02,3.6015e-02,2.0339e-02
1.6600e+01,2.6841e-02,3.5775e-02,2.0215e-02
1.6650e+01,2.6121e-02,3.5538e-02,2.0093e-02
1.6700e+01,2.5381e-02,3.5302e-02,1.9971e-02
1.6750e+01,2.4564e-02,3.5068e-02,1.9850e-02
1.6800e+01,2.3777e-02,3.4836e-02,1.9731e-02
1.6850e+01,2.2935e-02,3.4605e-02,1.9612e-02
1.6900e+01,2.2030e-02,3.4376e-02,1.9494e-02
1.6950e+01,2.1197e-02,3.4149e-02,1.9377e-02
1.7000e+01,2.0279e-02,3.3923e-02,1.9262e-02
