#wavelength = 0.35439
#qmax = 15.0
#qmin = 0.0
#Qdamp = 0.04373
#Lorch = off
#
5.0000e-02,-2.9879e+01
1.0000e-01,-5.9758e+01
1.5000e-01,-8.9637e+01
2.0000e-01,-1.1952e+02
2.5000e-01,-1.4939e+02
3.0000e-01,-1.7927e+02
3.5000e-01,-2.0915e+02
4.0000e-01,-2.3903e+02
4.5000e-01,-2.6891e+02
5.0000e-01,-2.9879e+02
5.5000e-01,-7.1053e+02
6.0000e-01,-7.8290e+02
6.5000e-01,-6.8756e+02
7.0000e-01,-6.0749e+02
7.5000e-01,-4.5896e+02
8.0000e-01,-2.5849e+02
8.5000e-01,2.1333e+01
9.0000e-01,3.0571e+02
9.5000e-01,4.3175e+02
1.0000e+00,6.5167e+02
1.0500e+00,9.2335e+02
1.1000e+00,1.2450e+03
1.1500e+00,1.6975e+03
1.2000e+00,2.2664e+03
1.2500e+00,2.9811e+03
1.3000e+00,3.8417e+03
1.3500e+00,4.8511e+03
1.4000e+00,6.0270e+03
1.4500e+00,7.3716e+03
1.5000e+00,8.8143e+03
1.5500e+00,1.0199e+04
1.6000e+00,1.1446e+04
1.6500e+00,1.2532e+04
1.7000e+00,1.3442e+04
1.7500e+00,1.4107e+04
1.8000e+00,1.4517e+04
1.8500e+00,1.4718e+04
1.9000e+00,1.4640e+04
1.9500e+00,1.4515e+04
2.0000e+00,1.4323e+04
2.0500e+00,1.3448e+04
2.1000e+00,1.2505e+04
2.1500e+00,1.1423e+04
2.2000e+00,1.0436e+04
2.2500e+00,9.3982e+03
2.3000e+00,8.5323e+03
2.3500e+00,7.8192e+03
2.4000e+00,7.2309e+03
2.4500e+00,6.7575e+03
2.5000e+00,6.3943e+03
2.5500e+00,6.0796e+03
2.6000e+00,5.8533e+03
2.6500e+00,5.6887e+03
2.7000e+00,5.5783e+03
2.7500e+00,5.5097e+03
2.8000e+00,5.4564e+03
2.8500e+00,5.3902e+03
2.9000e+00,5.3294e+03
2.9500e+00,5.2929e+03
3.0000e+00,5.2649e+03
3.0500e+00,5.2507e+03
3.1000e+00,5.2649e+03
3.1500e+00,5.2961e+03
3.2000e+00,5.3332e+03
3.2500e+00,5.3897e+03
3.3000e+00,5.4785e+03
3.3500e+00,5.5696e+03
3.4000e+00,5.6038e+03
3.4500e+00,5.6473e+03
3.5000e+00,5.7392e+03
3.5500e+00,5.7943e+03
3.6000e+00,5.7864e+03
3.6500e+00,5.8051e+03
3.7000e+00,5.7987e+03
3.7500e+00,5.7649e+03
3.8000e+00,5.7314e+03
3.8500e+00,5.6952e+03
3.9000e+00,5.6447e+03
3.9500e+00,5.5907e+03
4.0000e+00,5.5526e+03
4.0500e+00,5.5201e+03
4.1000e+00,5.4762e+03
4.1500e+00,5.4133e+03
4.2000e+00,5.3746e+03
4.2500e+00,5.3573e+03
4.3000e+00,5.3480e+03
4.3500e+00,5.3570e+03
4.4000e+00,5.3738e+03
4.4500e+00,5.3911e+03
4.5000e+00,5.4268e+03
4.5500e+00,5.4397e+03
4.6000e+00,5.4305e+03
4.6500e+00,5.4255e+03
4.7000e+00,5.4180e+03
4.7500e+00,5.4248e+03
4.8000e+00,5.4251e+03
4.8500e+00,5.3934e+03
4.9000e+00,5.3320e+03
4.9500e+00,5.2686e+03
5.0000e+00,5.1913e+03
5.0500e+00,5.0968e+03
5.1000e+00,4.9865e+03
5.1500e+00,4.8654e+03
5.2000e+00,4.7172e+03
5.2500e+00,4.5469e+03
5.3000e+00,4.3335e+03
5.3500e+00,4.1484e+03
5.4000e+00,3.9530e+03
5.4500e+00,3.7691e+03
5.5000e+00,3.5990e+03
5.5500e+00,3.4574e+03
5.6000e+00,3.3372e+03
5.6500e+00,3.2435e+03
5.7000e+00,3.1719e+03
5.7500e+00,3.1126e+03
5.8000e+00,3.0657e+03
5.8500e+00,3.0352e+03
5.9000e+00,3.0120e+03
5.9500e+00,2.9956e+03
6.0000e+00,2.9785e+03
6.0500e+00,2.9646e+03
6.1000e+00,2.9538e+03
6.1500e+00,2.9449e+03
6.2000e+00,2.9351e+03
6.2500e+00,2.9228e+03
6.3000e+00,2.9086e+03
6.3500e+00,2.8945e+03
6.4000e+00,2.8763e+03
6.4500e+00,2.8607e+03
6.5000e+00,2.8381e+03
6.5500e+00,2.8126e+03
6.6000e+00,2.7847e+03
6.6500e+00,2.7552e+03
6.7000e+00,2.7228e+03
6.7500e+00,2.6840e+03
6.8000e+00,2.6397e+03
6.8500e+00,2.5924e+03
6.9000e+00,2.5412e+03
6.9500e+00,2.4868e+03
7.0000e+00,2.4314e+03
7.0500e+00,2.3776e+03
7.1000e+00,2.3266e+03
7.1500e+00,2.2784e+03
7.2000e+00,2.2341e+03
7.2500e+00,2.1962e+03
7.3000e+00,2.1651e+03
7.3500e+00,2.1377e+03
7.4000e+00,2.1148e+03
7.4500e+00,2.0984e+03
7.5000e+00,2.0873e+03
7.5500e+00,2.0792e+03
7.6000e+00,2.0725e+03
7.6500e+00,2.0674e+03
7.7000e+00,2.0615e+03
7.7500e+00,2.0584e+03
7.8000e+00,2.0530e+03
7.8500e+00,2.0433e+03
7.9000e+00,2.0313e+03
7.9500e+00,2.0183e+03
8.0000e+00,2.0026e+03
8.0500e+00,1.9826e+03
8.1000e+00,1.9626e+03
8.1500e+00,1.9440e+03
8.2000e+00,1.9227e+03
8.2500e+00,1.9014e+03
8.3000e+00,1.8806e+03
8.3500e+00,1.8626e+03
8.4000e+00,1.8424e+03
8.4500e+00,1.8215e+03
8.5000e+00,1.8006e+03
8.5500e+00,1.7790e+03
8.6000e+00,1.7570e+03
8.6500e+00,1.7352e+03
8.7000e+00,1.7138e+03
8.7500e+00,1.6918e+03
8.8000e+00,1.6652e+03
8.8500e+00,1.6454e+03
8.9000e+00,1.6194e+03
8.9500e+00,1.5933e+03
9.0000e+00,1.5660e+03
9.0500e+00,1.5398e+03
9.1000e+00,1.5130e+03
9.1500e+00,1.4860e+03
9.2000e+00,1.4598e+03
9.2500e+00,1.4346e+03
9.3000e+00,1.4096e+03
9.3500e+00,1.3861e+03
9.4000e+00,1.3634e+03
9.4500e+00,1.3423e+03
9.5000e+00,1.3219e+03
9.5500e+00,1.3020e+03
9.6000e+00,1.2844e+03
9.6500e+00,1.2678e+03
9.7000e+00,1.2525e+03
9.7500e+00,1.2388e+03
9.8000e+00,1.2249e+03
9.8500e+00,1.2106e+03
9.9000e+00,1.1988e+03
9.9500e+00,1.1876e+03
1.0000e+01,1.1769e+03
1.0050e+01,1.1667e+03
1.0100e+01,1.1558e+03
1.0150e+01,1.1452e+03
1.0200e+01,1.1352e+03
1.0250e+01,1.1257e+03
1.0300e+01,1.1152e+03
1.0350e+01,1.1052e+03
1.0400e+01,1.0951e+03
1.0450e+01,1.0843e+03
1.0500e+01,1.0734e+03
1.0550e+01,1.0622e+03
1.0600e+01,1.0511e+03
1.0650e+01,1.0405e+03
1.0700e+01,1.0298e+03
1.0750e+01,1.0186e+03
1.0800e+01,1.0082e+03
1.0850e+01,9.9843e+02
1.0900e+01,9.8861e+02
1.0950e+01,9.7847e+02
1.1000e+01,9.6852e+02
1.1050e+01,9.5828e+02
1.1100e+01,9.4967e+02
1.1150e+01,9.4129e+02
1.1200e+01,9.3275e+02
1.1250e+01,9.2580e+02
1.1300e+01,9.1987e+02
1.1350e+01,9.1441e+02
1.1400e+01,9.0931e+02
1.1450e+01,9.0490e+02
1.1500e+01,9.0188e+02
1.1550e+01,8.9921e+02
1.1600e+01,8.9669e+02
1.1650e+01,8.9448e+02
1.1700e+01,8.9359e+02
1.1750e+01,8.9337e+02
1.1800e+01,8.9340e+02
1.1850e+01,8.9304e+02
1.1900e+01,8.9336e+02
1.1950e+01,8.9390e+02
1.2000e+01,8.9998e+02
1.2050e+01,9.0173e+02
1.2100e+01,8.9892e+02
1.2150e+01,8.9473e+02
1.2200e+01,8.9102e+02
1.2250e+01,8.8701e+02
1.2300e+01,8.8278e+02
1.2350e+01,8.7733e+02
1.2400e+01,8.7049e+02
1.2450e+01,8.6386e+02
1.2500e+01,8.5689e+02
1.2550e+01,8.4886e+02
1.2600e+01,8.4031e+02
1.2650e+01,8.3104e+02
1.2700e+01,8.2165e+02
1.2750e+01,8.1140e+02
1.2800e+01,8.0239e+02
1.2850e+01,7.9119e+02
1.2900e+01,7.7979e+02
1.2950e+01,7.6871e+02
1.3000e+01,7.5769e+02
1.3050e+01,7.4712e+02
1.3100e+01,7.3708e+02
1.3150e+01,7.2776e+02
1.3200e+01,7.1847e+02
1.3250e+01,7.0962e+02
1.3300e+01,7.0028e+02
1.3350e+01,6.9093e+02
1.3400e+01,6.8264e+02
1.3450e+01,6.7405e+02
1.3500e+01,6.6548e+02
1.3550e+01,6.5834e+02
1.3600e+01,6.5127e+02
1.3650e+01,6.4274e+02
1.3700e+01,6.3656e+02
1.3750e+01,6.3134e+02
1.3800e+01,6.2578e+02
1.3850e+01,6.2025e+02
1.3900e+01,6.1514e+02
1.3950e+01,6.1061e+02
1.4000e+01,6.0605e+02
1.4050e+01,6.0174e+02
1.4100e+01,5.9838e+02
1.4150e+01,5.9474e+02
1.4200e+01,5.9203e+02
1.4250e+01,5.8910e+02
1.4300e+01,5.8632e+02
1.4350e+01,5.8354e+02
1.4400e+01,5.8060e+02
1.4450e+01,5.7855e+02
1.4500e+01,5.7497e+02
1.4550e+01,5.7368e+02
1.4600e+01,5.7153e+02
1.4650e+01,5.6893e+02
1.4700e+01,5.6496e+02
1.4750e+01,5.6339e+02
1.4800e+01,5.6053e+02
1.4850e+01,5.5748e+02
1.4900e+01,5.5393e+02
1.4950e+01,5.5002e+02
