#wavelength = 0.35439
#qmax = 15.0
#qmin = 0.0
#Qdamp = 0.04373
#Lorch = off
#Q, intensity(inelacstic), <f^2>, <f>^2
#
5.0000e-02,1.7249e-02,1.3333e+00,9.8929e-01
1.0000e-01,3.4498e-02,1.3315e+00,9.8799e-01
1.5000e-01,5.1748e-02,1.3286e+00,9.8585e-01
2.0000e-01,6.8997e-02,1.3245e+00,9.8286e-01
2.5000e-01,8.6246e-02,1.3192e+00,9.7905e-01
3.0000e-01,1.0350e-01,1.3129e+00,9.7445e-01
3.5000e-01,1.2074e-01,1.3056e+00,9.6908e-01
4.0000e-01,1.3799e-01,1.2973e+00,9.6297e-01
4.5000e-01,1.5524e-01,1.2881e+00,9.5616e-01
5.0000e-01,1.7249e-01,1.2780e+00,9.4869e-01
5.5000e-01,1.4669e-01,1.2671e+00,9.4059e-01
6.0000e-01,1.4458e-01,1.2556e+00,9.3192e-01
6.5000e-01,1.4091e-01,1.2433e+00,9.2270e-01
7.0000e-01,1.4027e-01,1.2305e+00,9.1300e-01
7.5000e-01,1.4688e-01,1.2172e+00,9.0284e-01
8.0000e-01,1.5780e-01,1.2034e+00,8.9228e-01
8.5000e-01,1.7623e-01,1.1892e+00,8.8136e-01
9.0000e-01,1.9734e-01,1.1747e+00,8.7011e-01
9.5000e-01,2.0597e-01,1.1599e+00,8.5859e-01
1.0000e+00,2.2212e-01,1.1449e+00,8.4683e-01
1.0500e+00,2.4322e-01,1.1296e+00,8.3487e-01
1.1000e+00,2.6658e-01,1.1142e+00,8.2274e-01
1.1500e+00,2.9971e-01,1.0987e+00,8.1048e-01
1.2000e+00,3.3988e-01,1.0832e+00,7.9811e-01
1.2500e+00,3.8974e-01,1.0676e+00,7.8568e-01
1.3000e+00,4.5459e-01,1.0519e+00,7.7320e-01
1.3500e+00,5.2685e-01,1.0363e+00,7.6070e-01
1.4000e+00,6.0651e-01,1.0208e+00,7.4821e-01
1.4500e+00,7.0612e-01,1.0052e+00,7.3574e-01
1.5000e+00,8.1252e-01,9.8982e-01,7.2331e-01
1.5500e+00,9.2269e-01,9.7449e-01,7.1095e-01
1.6000e+00,1.0293e+00,9.5927e-01,6.9867e-01
1.6500e+00,1.1245e+00,9.4418e-01,6.8649e-01
1.7000e+00,1.2057e+00,9.2924e-01,6.7441e-01
1.7500e+00,1.2730e+00,9.1444e-01,6.6244e-01
1.8000e+00,1.3048e+00,8.9981e-01,6.5061e-01
1.8500e+00,1.3018e+00,8.8536e-01,6.3891e-01
1.9000e+00,1.2765e+00,8.7108e-01,6.2735e-01
1.9500e+00,1.2360e+00,8.5700e-01,6.1595e-01
2.0000e+00,1.1913e+00,8.4310e-01,6.0471e-01
2.0500e+00,1.1066e+00,8.2941e-01,5.9362e-01
2.1000e+00,1.0191e+00,8.1592e-01,5.8271e-01
2.1500e+00,9.3396e-01,8.0265e-01,5.7196e-01
2.2000e+00,8.5550e-01,7.8958e-01,5.6139e-01
2.2500e+00,7.8004e-01,7.7673e-01,5.5099e-01
2.3000e+00,7.1926e-01,7.6409e-01,5.4076e-01
2.3500e+00,6.6119e-01,7.5168e-01,5.3072e-01
2.4000e+00,6.1563e-01,7.3948e-01,5.2085e-01
2.4500e+00,5.8034e-01,7.2750e-01,5.1116e-01
2.5000e+00,5.5450e-01,7.1574e-01,5.0165e-01
2.5500e+00,5.2798e-01,7.0420e-01,4.9232e-01
2.6000e+00,5.0660e-01,6.9288e-01,4.8316e-01
2.6500e+00,4.9302e-01,6.8178e-01,4.7418e-01
2.7000e+00,4.8486e-01,6.7089e-01,4.6538e-01
2.7500e+00,4.7851e-01,6.6021e-01,4.5675e-01
2.8000e+00,4.7323e-01,6.4975e-01,4.4829e-01
2.8500e+00,4.6932e-01,6.3949e-01,4.4000e-01
2.9000e+00,4.6345e-01,6.2945e-01,4.3188e-01
2.9500e+00,4.6454e-01,6.1960e-01,4.2392e-01
3.0000e+00,4.6313e-01,6.0996e-01,4.1613e-01
3.0500e+00,4.5717e-01,6.0051e-01,4.0850e-01
3.1000e+00,4.5730e-01,5.9126e-01,4.0103e-01
3.1500e+00,4.5898e-01,5.8220e-01,3.9371e-01
3.2000e+00,4.6135e-01,5.7333e-01,3.8655e-01
3.2500e+00,4.6545e-01,5.6464e-01,3.7954e-01
3.3000e+00,4.7157e-01,5.5613e-01,3.7267e-01
3.3500e+00,4.7685e-01,5.4780e-01,3.6596e-01
3.4000e+00,4.7861e-01,5.3964e-01,3.5938e-01
3.4500e+00,4.7925e-01,5.3164e-01,3.5295e-01
3.5000e+00,4.8494e-01,5.2381e-01,3.4665e-01
3.5500e+00,4.8795e-01,5.1614e-01,3.4049e-01
3.6000e+00,4.8391e-01,5.0863e-01,3.3446e-01
3.6500e+00,4.8358e-01,5.0127e-01,3.2855e-01
3.7000e+00,4.8162e-01,4.9406e-01,3.2278e-01
3.7500e+00,4.7963e-01,4.8699e-01,3.1712e-01
3.8000e+00,4.7510e-01,4.8006e-01,3.1159e-01
3.8500e+00,4.7171e-01,4.7327e-01,3.0617e-01
3.9000e+00,4.6675e-01,4.6661e-01,3.0087e-01
3.9500e+00,4.6318e-01,4.6008e-01,2.9568e-01
4.0000e+00,4.5784e-01,4.5368e-01,2.9060e-01
4.0500e+00,4.5443e-01,4.4739e-01,2.8563e-01
4.1000e+00,4.5240e-01,4.4123e-01,2.8076e-01
4.1500e+00,4.4729e-01,4.3518e-01,2.7599e-01
4.2000e+00,4.4340e-01,4.2924e-01,2.7132e-01
4.2500e+00,4.4261e-01,4.2341e-01,2.6675e-01
4.3000e+00,4.4171e-01,4.1768e-01,2.6228e-01
4.3500e+00,4.4221e-01,4.1205e-01,2.5790e-01
4.4000e+00,4.4419e-01,4.0653e-01,2.5361e-01
4.4500e+00,4.4495e-01,4.0110e-01,2.4940e-01
4.5000e+00,4.4763e-01,3.9576e-01,2.4528e-01
4.5500e+00,4.4799e-01,3.9051e-01,2.4125e-01
4.6000e+00,4.4730e-01,3.8536e-01,2.3730e-01
4.6500e+00,4.4656e-01,3.8028e-01,2.3343e-01
4.7000e+00,4.4571e-01,3.7529e-01,2.2964e-01
4.7500e+00,4.4605e-01,3.7038e-01,2.2592e-01
4.8000e+00,4.4626e-01,3.6555e-01,2.2228e-01
4.8500e+00,4.4288e-01,3.6080e-01,2.1871e-01
4.9000e+00,4.3840e-01,3.5612e-01,2.1521e-01
4.9500e+00,4.3430e-01,3.5151e-01,2.1178e-01
5.0000e+00,4.2926e-01,3.4697e-01,2.0842e-01
5.0500e+00,4.2184e-01,3.4250e-01,2.0513e-01
5.1000e+00,4.1339e-01,3.3810e-01,2.0190e-01
5.1500e+00,4.0424e-01,3.3376e-01,1.9873e-01
5.2000e+00,3.9195e-01,3.2949e-01,1.9563e-01
5.2500e+00,3.7815e-01,3.2528e-01,1.9259e-01
5.3000e+00,3.6048e-01,3.2113e-01,1.8960e-01
5.3500e+00,3.4592e-01,3.1704e-01,1.8668e-01
5.4000e+00,3.3032e-01,3.1301e-01,1.8381e-01
5.4500e+00,3.1616e-01,3.0904e-01,1.8099e-01
5.5000e+00,3.0274e-01,3.0512e-01,1.7823e-01
5.5500e+00,2.9179e-01,3.0125e-01,1.7553e-01
5.6000e+00,2.8234e-01,2.9745e-01,1.7287e-01
5.6500e+00,2.7458e-01,2.9369e-01,1.7027e-01
5.7000e+00,2.6934e-01,2.8998e-01,1.6771e-01
5.7500e+00,2.6419e-01,2.8633e-01,1.6520e-01
5.8000e+00,2.5984e-01,2.8272e-01,1.6274e-01
5.8500e+00,2.5714e-01,2.7917e-01,1.6033e-01
5.9000e+00,2.5488e-01,2.7566e-01,1.5796e-01
5.9500e+00,2.5323e-01,2.7220e-01,1.5564e-01
6.0000e+00,2.5129e-01,2.6879e-01,1.5336e-01
6.0500e+00,2.4984e-01,2.6542e-01,1.5112e-01
6.1000e+00,2.4883e-01,2.6210e-01,1.4892e-01
6.1500e+00,2.4746e-01,2.5883e-01,1.4677e-01
6.2000e+00,2.4625e-01,2.5559e-01,1.4465e-01
6.2500e+00,2.4495e-01,2.5240e-01,1.4257e-01
6.3000e+00,2.4377e-01,2.4926e-01,1.4053e-01
6.3500e+00,2.4269e-01,2.4615e-01,1.3853e-01
6.4000e+00,2.4065e-01,2.4309e-01,1.3657e-01
6.4500e+00,2.3884e-01,2.4007e-01,1.3464e-01
6.5000e+00,2.3682e-01,2.3709e-01,1.3274e-01
6.5500e+00,2.3452e-01,2.3415e-01,1.3088e-01
6.6000e+00,2.3206e-01,2.3125e-01,1.2905e-01
6.6500e+00,2.2925e-01,2.2838e-01,1.2726e-01
6.7000e+00,2.2645e-01,2.2556e-01,1.2550e-01
6.7500e+00,2.2302e-01,2.2277e-01,1.2377e-01
6.8000e+00,2.1924e-01,2.2003e-01,1.2207e-01
6.8500e+00,2.1533e-01,2.1732e-01,1.2040e-01
6.9000e+00,2.1126e-01,2.1464e-01,1.1876e-01
6.9500e+00,2.0695e-01,2.1201e-01,1.1715e-01
7.0000e+00,2.0262e-01,2.0940e-01,1.1557e-01
7.0500e+00,1.9812e-01,2.0684e-01,1.1401e-01
7.1000e+00,1.9394e-01,2.0431e-01,1.1249e-01
7.1500e+00,1.9036e-01,2.0181e-01,1.1099e-01
7.2000e+00,1.8678e-01,1.9935e-01,1.0951e-01
7.2500e+00,1.8379e-01,1.9692e-01,1.0806e-01
7.3000e+00,1.8123e-01,1.9453e-01,1.0664e-01
7.3500e+00,1.7898e-01,1.9217e-01,1.0524e-01
7.4000e+00,1.7727e-01,1.8984e-01,1.0387e-01
7.4500e+00,1.7594e-01,1.8755e-01,1.0252e-01
7.5000e+00,1.7510e-01,1.8528e-01,1.0119e-01
7.5500e+00,1.7449e-01,1.8305e-01,9.9887e-02
7.6000e+00,1.7415e-01,1.8085e-01,9.8605e-02
7.6500e+00,1.7377e-01,1.7868e-01,9.7345e-02
7.7000e+00,1.7341e-01,1.7655e-01,9.6106e-02
7.7500e+00,1.7308e-01,1.7444e-01,9.4889e-02
7.8000e+00,1.7266e-01,1.7236e-01,9.3692e-02
7.8500e+00,1.7200e-01,1.7031e-01,9.2515e-02
7.9000e+00,1.7114e-01,1.6829e-01,9.1359e-02
7.9500e+00,1.7016e-01,1.6630e-01,9.0221e-02
8.0000e+00,1.6878e-01,1.6434e-01,8.9103e-02
8.0500e+00,1.6741e-01,1.6241e-01,8.8004e-02
8.1000e+00,1.6554e-01,1.6050e-01,8.6923e-02
8.1500e+00,1.6387e-01,1.5862e-01,8.5860e-02
8.2000e+00,1.6224e-01,1.5677e-01,8.4815e-02
8.2500e+00,1.6038e-01,1.5495e-01,8.3788e-02
8.3000e+00,1.5858e-01,1.5315e-01,8.2777e-02
8.3500e+00,1.5697e-01,1.5138e-01,8.1783e-02
8.4000e+00,1.5532e-01,1.4963e-01,8.0806e-02
8.4500e+00,1.5360e-01,1.4791e-01,7.9844e-02
8.5000e+00,1.5194e-01,1.4622e-01,7.8899e-02
8.5500e+00,1.5021e-01,1.4455e-01,7.7969e-02
8.6000e+00,1.4856e-01,1.4290e-01,7.7054e-02
8.6500e+00,1.4686e-01,1.4128e-01,7.6154e-02
8.7000e+00,1.4510e-01,1.3969e-01,7.5269e-02
8.7500e+00,1.4333e-01,1.3811e-01,7.4398e-02
8.8000e+00,1.4126e-01,1.3656e-01,7.3542e-02
8.8500e+00,1.3976e-01,1.3504e-01,7.2699e-02
8.9000e+00,1.3777e-01,1.3353e-01,7.1870e-02
8.9500e+00,1.3567e-01,1.3205e-01,7.1054e-02
9.0000e+00,1.3346e-01,1.3059e-01,7.0252e-02
9.0500e+00,1.3127e-01,1.2915e-01,6.9462e-02
9.1000e+00,1.2917e-01,1.2773e-01,6.8685e-02
9.1500e+00,1.2703e-01,1.2634e-01,6.7920e-02
9.2000e+00,1.2487e-01,1.2496e-01,6.7168e-02
9.2500e+00,1.2278e-01,1.2361e-01,6.6427e-02
9.3000e+00,1.2077e-01,1.2227e-01,6.5699e-02
9.3500e+00,1.1879e-01,1.2096e-01,6.4981e-02
9.4000e+00,1.1694e-01,1.1966e-01,6.4275e-02
9.4500e+00,1.1513e-01,1.1839e-01,6.3581e-02
9.5000e+00,1.1343e-01,1.1713e-01,6.2897e-02
9.5500e+00,1.1178e-01,1.1589e-01,6.2224e-02
9.6000e+00,1.1027e-01,1.1468e-01,6.1561e-02
9.6500e+00,1.0892e-01,1.1347e-01,6.0909e-02
9.7000e+00,1.0762e-01,1.1229e-01,6.0266e-02
9.7500e+00,1.0653e-01,1.1113e-01,5.9634e-02
9.8000e+00,1.0538e-01,1.0998e-01,5.9012e-02
9.8500e+00,1.0419e-01,1.0885e-01,5.8399e-02
9.9000e+00,1.0317e-01,1.0773e-01,5.7795e-02
9.9500e+00,1.0225e-01,1.0664e-01,5.7201e-02
1.0000e+01,1.0141e-01,1.0556e-01,5.6616e-02
1.0050e+01,1.0053e-01,1.0449e-01,5.6040e-02
1.0100e+01,9.9657e-02,1.0344e-01,5.5472e-02
1.0150e+01,9.8822e-02,1.0241e-01,5.4914e-02
1.0200e+01,9.7980e-02,1.0139e-01,5.4363e-02
1.0250e+01,9.7171e-02,1.0039e-01,5.3821e-02
1.0300e+01,9.6345e-02,9.9400e-02,5.3287e-02
1.0350e+01,9.5491e-02,9.8426e-02,5.2761e-02
1.0400e+01,9.4657e-02,9.7466e-02,5.2243e-02
1.0450e+01,9.3793e-02,9.6521e-02,5.1732e-02
1.0500e+01,9.2950e-02,9.5590e-02,5.1229e-02
1.0550e+01,9.2034e-02,9.4672e-02,5.0734e-02
1.0600e+01,9.1142e-02,9.3768e-02,5.0246e-02
1.0650e+01,9.0211e-02,9.2876e-02,4.9765e-02
1.0700e+01,8.9368e-02,9.1998e-02,4.9291e-02
1.0750e+01,8.8444e-02,9.1132e-02,4.8824e-02
1.0800e+01,8.7570e-02,9.0279e-02,4.8363e-02
1.0850e+01,8.6726e-02,8.9439e-02,4.7910e-02
1.0900e+01,8.5872e-02,8.8610e-02,4.7462e-02
1.0950e+01,8.5025e-02,8.7793e-02,4.7022e-02
1.1000e+01,8.4181e-02,8.6988e-02,4.6587e-02
1.1050e+01,8.3267e-02,8.6194e-02,4.6159e-02
1.1100e+01,8.2521e-02,8.5412e-02,4.5737e-02
1.1150e+01,8.1783e-02,8.4640e-02,4.5321e-02
1.1200e+01,8.1020e-02,8.3880e-02,4.4910e-02
1.1250e+01,8.0429e-02,8.3130e-02,4.4506e-02
1.1300e+01,7.9862e-02,8.2391e-02,4.4107e-02
1.1350e+01,7.9318e-02,8.1662e-02,4.3714e-02
1.1400e+01,7.8816e-02,8.0943e-02,4.3326e-02
1.1450e+01,7.8401e-02,8.0234e-02,4.2943e-02
1.1500e+01,7.8044e-02,7.9534e-02,4.2566e-02
1.1550e+01,7.7739e-02,7.8845e-02,4.2194e-02
1.1600e+01,7.7480e-02,7.8164e-02,4.1827e-02
1.1650e+01,7.7226e-02,7.7493e-02,4.1465e-02
1.1700e+01,7.7107e-02,7.6832e-02,4.1107e-02
1.1750e+01,7.6976e-02,7.6178e-02,4.0755e-02
1.1800e+01,7.6910e-02,7.5534e-02,4.0407e-02
1.1850e+01,7.6818e-02,7.4898e-02,4.0064e-02
1.1900e+01,7.6787e-02,7.4271e-02,3.9726e-02
1.1950e+01,7.6828e-02,7.3652e-02,3.9392e-02
1.2000e+01,7.7250e-02,7.3041e-02,3.9063e-02
1.2050e+01,7.7371e-02,7.2438e-02,3.8737e-02
1.2100e+01,7.7111e-02,7.1843e-02,3.8416e-02
1.2150e+01,7.6730e-02,7.1256e-02,3.8100e-02
1.2200e+01,7.6403e-02,7.0676e-02,3.7787e-02
1.2250e+01,7.6093e-02,7.0104e-02,3.7478e-02
1.2300e+01,7.5748e-02,6.9539e-02,3.7173e-02
1.2350e+01,7.5278e-02,6.8980e-02,3.6873e-02
1.2400e+01,7.4692e-02,6.8429e-02,3.6576e-02
1.2450e+01,7.4110e-02,6.7885e-02,3.6282e-02
1.2500e+01,7.3521e-02,6.7348e-02,3.5993e-02
1.2550e+01,7.2850e-02,6.6817e-02,3.5707e-02
1.2600e+01,7.2110e-02,6.6293e-02,3.5424e-02
1.2650e+01,7.1303e-02,6.5775e-02,3.5146e-02
1.2700e+01,7.0471e-02,6.5263e-02,3.4870e-02
1.2750e+01,6.9616e-02,6.4758e-02,3.4598e-02
1.2800e+01,6.8846e-02,6.4258e-02,3.4329e-02
1.2850e+01,6.7870e-02,6.3765e-02,3.4064e-02
1.2900e+01,6.6908e-02,6.3277e-02,3.3802e-02
1.2950e+01,6.5988e-02,6.2795e-02,3.3543e-02
1.3000e+01,6.5078e-02,6.2319e-02,3.3287e-02
1.3050e+01,6.4216e-02,6.1848e-02,3.3034e-02
1.3100e+01,6.3387e-02,6.1382e-02,3.2784e-02
1.3150e+01,6.2596e-02,6.0922e-02,3.2537e-02
1.3200e+01,6.1827e-02,6.0467e-02,3.2293e-02
1.3250e+01,6.1076e-02,6.0017e-02,3.2052e-02
1.3300e+01,6.0295e-02,5.9572e-02,3.1813e-02
1.3350e+01,5.9491e-02,5.9132e-02,3.1578e-02
1.3400e+01,5.8793e-02,5.8697e-02,3.1345e-02
1.3450e+01,5.8062e-02,5.8267e-02,3.1114e-02
1.3500e+01,5.7358e-02,5.7841e-02,3.0887e-02
1.3550e+01,5.6748e-02,5.7420e-02,3.0662e-02
1.3600e+01,5.6120e-02,5.7003e-02,3.0439e-02
1.3650e+01,5.5394e-02,5.6591e-02,3.0219e-02
1.3700e+01,5.4854e-02,5.6183e-02,3.0001e-02
1.3750e+01,5.4364e-02,5.5779e-02,2.9786e-02
1.3800e+01,5.3888e-02,5.5380e-02,2.9573e-02
1.3850e+01,5.3393e-02,5.4984e-02,2.9363e-02
1.3900e+01,5.2923e-02,5.4593e-02,2.9155e-02
1.3950e+01,5.2477e-02,5.4206e-02,2.8949e-02
1.4000e+01,5.2058e-02,5.3822e-02,2.8745e-02
1.4050e+01,5.1646e-02,5.3443e-02,2.8544e-02
1.4100e+01,5.1292e-02,5.3067e-02,2.8344e-02
1.4150e+01,5.0934e-02,5.2695e-02,2.8147e-02
1.4200e+01,5.0601e-02,5.2326e-02,2.7952e-02
1.4250e+01,5.0285e-02,5.1961e-02,2.7759e-02
1.4300e+01,4.9957e-02,5.1600e-02,2.7568e-02
1.4350e+01,4.9629e-02,5.1242e-02,2.7379e-02
1.4400e+01,4.9270e-02,5.0887e-02,2.7192e-02
1.4450e+01,4.8956e-02,5.0536e-02,2.7006e-02
1.4500e+01,4.8558e-02,5.0188e-02,2.6823e-02
1.4550e+01,4.8343e-02,4.9844e-02,2.6642e-02
1.4600e+01,4.8041e-02,4.9502e-02,2.6462e-02
1.4650e+01,4.7738e-02,4.9164e-02,2.6284e-02
1.4700e+01,4.7321e-02,4.8828e-02,2.6108e-02
1.4750e+01,4.7098e-02,4.8496e-02,2.5934e-02
1.4800e+01,4.6779e-02,4.8167e-02,2.5762e-02
1.4850e+01,4.6456e-02,4.7840e-02,2.5591e-02
1.4900e+01,4.6114e-02,4.7517e-02,2.5422e-02
1.4950e+01,4.5746e-02,4.7196e-02,2.5254e-02
