#wavelength = 0.35439
#qmax = 15.0
#qmin = 0.0
#Qdamp = 0.04373
#Lorch = off
#Q, intensity(inelacstic), <f^2>, <f>^2
#
5.0000e-02,-4.9826e-03,1.3258e+00,9.8950e-01
1.0000e-01,-9.9651e-03,1.3240e+00,9.8820e-01
1.5000e-01,-1.4948e-02,1.3211e+00,9.8604e-01
2.0000e-01,-1.9930e-02,1.3169e+00,9.8304e-01
2.5000e-01,-2.4913e-02,1.3117e+00,9.7921e-01
3.0000e-01,-2.9895e-02,1.3054e+00,9.7458e-01
3.5000e-01,-3.4878e-02,1.2981e+00,9.6918e-01
4.0000e-01,-3.9860e-02,1.2898e+00,9.6303e-01
4.5000e-01,-4.4843e-02,1.2805e+00,9.5618e-01
5.0000e-01,-4.9826e-02,1.2705e+00,9.4866e-01
5.5000e-01,-8.1028e-02,1.2596e+00,9.4051e-01
6.0000e-01,-7.6441e-02,1.2480e+00,9.3178e-01
6.5000e-01,-8.3837e-02,1.2358e+00,9.2251e-01
7.0000e-01,-8.9161e-02,1.2230e+00,9.1273e-01
7.5000e-01,-8.0015e-02,1.2096e+00,9.0251e-01
8.0000e-01,-6.3508e-02,1.1958e+00,8.9188e-01
8.5000e-01,-3.7353e-02,1.1816e+00,8.8088e-01
9.0000e-01,-7.3597e-03,1.1670e+00,8.6956e-01
9.5000e-01,1.0410e-02,1.1522e+00,8.5796e-01
1.0000e+00,3.6832e-02,1.1371e+00,8.4612e-01
1.0500e+00,7.0138e-02,1.1219e+00,8.3408e-01
1.1000e+00,9.7584e-02,1.1064e+00,8.2187e-01
1.1500e+00,1.3897e-01,1.0909e+00,8.0952e-01
1.2000e+00,1.9270e-01,1.0753e+00,7.9708e-01
1.2500e+00,2.4504e-01,1.0597e+00,7.8457e-01
1.3000e+00,3.1738e-01,1.0440e+00,7.7201e-01
1.3500e+00,4.0189e-01,1.0284e+00,7.5944e-01
1.4000e+00,4.7264e-01,1.0128e+00,7.4688e-01
1.4500e+00,5.7049e-01,9.9730e-01,7.3434e-01
1.5000e+00,6.8271e-01,9.8187e-01,7.2186e-01
1.5500e+00,8.0607e-01,9.6653e-01,7.0944e-01
1.6000e+00,9.3406e-01,9.5132e-01,6.9711e-01
1.6500e+00,1.0564e+00,9.3624e-01,6.8488e-01
1.7000e+00,1.1780e+00,9.2131e-01,6.7276e-01
1.7500e+00,1.2892e+00,9.0654e-01,6.6076e-01
1.8000e+00,1.3651e+00,8.9194e-01,6.4889e-01
1.8500e+00,1.3703e+00,8.7752e-01,6.3717e-01
1.9000e+00,1.3507e+00,8.6328e-01,6.2560e-01
1.9500e+00,1.2906e+00,8.4924e-01,6.1419e-01
2.0000e+00,1.2198e+00,8.3540e-01,6.0294e-01
2.0500e+00,1.1170e+00,8.2177e-01,5.9186e-01
2.1000e+00,1.0180e+00,8.0835e-01,5.8095e-01
2.1500e+00,9.2492e-01,7.9514e-01,5.7021e-01
2.2000e+00,8.3469e-01,7.8216e-01,5.5966e-01
2.2500e+00,7.5705e-01,7.6939e-01,5.4928e-01
2.3000e+00,7.0223e-01,7.5684e-01,5.3909e-01
2.3500e+00,6.3917e-01,7.4452e-01,5.2907e-01
2.4000e+00,5.8902e-01,7.3241e-01,5.1924e-01
2.4500e+00,5.5429e-01,7.2054e-01,5.0960e-01
2.5000e+00,5.2991e-01,7.0888e-01,5.0013e-01
2.5500e+00,5.0492e-01,6.9745e-01,4.9085e-01
2.6000e+00,4.7993e-01,6.8624e-01,4.8174e-01
2.6500e+00,4.6602e-01,6.7525e-01,4.7282e-01
2.7000e+00,4.5765e-01,6.6448e-01,4.6407e-01
2.7500e+00,4.5252e-01,6.5392e-01,4.5550e-01
2.8000e+00,4.4887e-01,6.4358e-01,4.4711e-01
2.8500e+00,4.4656e-01,6.3345e-01,4.3888e-01
2.9000e+00,4.4146e-01,6.2353e-01,4.3083e-01
2.9500e+00,4.3902e-01,6.1381e-01,4.2294e-01
3.0000e+00,4.3761e-01,6.0429e-01,4.1522e-01
3.0500e+00,4.3689e-01,5.9497e-01,4.0766e-01
3.1000e+00,4.3914e-01,5.8585e-01,4.0026e-01
3.1500e+00,4.4248e-01,5.7691e-01,3.9301e-01
3.2000e+00,4.4689e-01,5.6817e-01,3.8592e-01
3.2500e+00,4.5295e-01,5.5960e-01,3.7899e-01
3.3000e+00,4.6271e-01,5.5122e-01,3.7220e-01
3.3500e+00,4.7149e-01,5.4301e-01,3.6555e-01
3.4000e+00,4.7521e-01,5.3498e-01,3.5905e-01
3.4500e+00,4.7646e-01,5.2711e-01,3.5269e-01
3.5000e+00,4.8106e-01,5.1940e-01,3.4646e-01
3.5500e+00,4.8776e-01,5.1185e-01,3.4037e-01
3.6000e+00,4.8459e-01,5.0446e-01,3.3441e-01
3.6500e+00,4.8144e-01,4.9722e-01,3.2857e-01
3.7000e+00,4.8033e-01,4.9012e-01,3.2286e-01
3.7500e+00,4.7746e-01,4.8317e-01,3.1728e-01
3.8000e+00,4.7474e-01,4.7636e-01,3.1181e-01
3.8500e+00,4.7146e-01,4.6968e-01,3.0646e-01
3.9000e+00,4.6846e-01,4.6313e-01,3.0122e-01
3.9500e+00,4.6436e-01,4.5671e-01,2.9609e-01
4.0000e+00,4.6089e-01,4.5041e-01,2.9107e-01
4.0500e+00,4.5507e-01,4.4423e-01,2.8616e-01
4.1000e+00,4.5148e-01,4.3816e-01,2.8134e-01
4.1500e+00,4.4830e-01,4.3221e-01,2.7663e-01
4.2000e+00,4.4441e-01,4.2637e-01,2.7202e-01
4.2500e+00,4.4198e-01,4.2064e-01,2.6750e-01
4.3000e+00,4.4200e-01,4.1500e-01,2.6308e-01
4.3500e+00,4.4333e-01,4.0947e-01,2.5875e-01
4.4000e+00,4.4475e-01,4.0403e-01,2.5450e-01
4.4500e+00,4.4638e-01,3.9869e-01,2.5034e-01
4.5000e+00,4.5082e-01,3.9344e-01,2.4627e-01
4.5500e+00,4.5380e-01,3.8828e-01,2.4228e-01
4.6000e+00,4.5410e-01,3.8320e-01,2.3837e-01
4.6500e+00,4.5418e-01,3.7820e-01,2.3454e-01
4.7000e+00,4.5424e-01,3.7329e-01,2.3078e-01
4.7500e+00,4.5464e-01,3.6845e-01,2.2710e-01
4.8000e+00,4.5634e-01,3.6369e-01,2.2349e-01
4.8500e+00,4.5479e-01,3.5901e-01,2.1996e-01
4.9000e+00,4.4926e-01,3.5439e-01,2.1649e-01
4.9500e+00,4.4420e-01,3.4985e-01,2.1309e-01
5.0000e+00,4.3875e-01,3.4538e-01,2.0976e-01
5.0500e+00,4.3248e-01,3.4097e-01,2.0649e-01
5.1000e+00,4.2338e-01,3.3663e-01,2.0328e-01
5.1500e+00,4.1254e-01,3.3235e-01,2.0014e-01
5.2000e+00,3.9927e-01,3.2813e-01,1.9706e-01
5.2500e+00,3.8305e-01,3.2397e-01,1.9404e-01
5.3000e+00,3.6423e-01,3.1987e-01,1.9107e-01
5.3500e+00,3.4839e-01,3.1583e-01,1.8816e-01
5.4000e+00,3.3182e-01,3.1185e-01,1.8531e-01
5.4500e+00,3.1655e-01,3.0792e-01,1.8251e-01
5.5000e+00,3.0264e-01,3.0405e-01,1.7976e-01
5.5500e+00,2.9061e-01,3.0023e-01,1.7707e-01
5.6000e+00,2.8092e-01,2.9646e-01,1.7442e-01
5.6500e+00,2.7264e-01,2.9274e-01,1.7182e-01
5.7000e+00,2.6632e-01,2.8907e-01,1.6928e-01
5.7500e+00,2.6109e-01,2.8546e-01,1.6678e-01
5.8000e+00,2.5712e-01,2.8189e-01,1.6432e-01
5.8500e+00,2.5476e-01,2.7836e-01,1.6191e-01
5.9000e+00,2.5281e-01,2.7489e-01,1.5955e-01
5.9500e+00,2.5117e-01,2.7146e-01,1.5723e-01
6.0000e+00,2.4965e-01,2.6808e-01,1.5495e-01
6.0500e+00,2.4796e-01,2.6474e-01,1.5271e-01
6.1000e+00,2.4667e-01,2.6144e-01,1.5052e-01
6.1500e+00,2.4646e-01,2.5819e-01,1.4836e-01
6.2000e+00,2.4522e-01,2.5498e-01,1.4624e-01
6.2500e+00,2.4389e-01,2.5181e-01,1.4416e-01
6.3000e+00,2.4275e-01,2.4869e-01,1.4212e-01
6.3500e+00,2.4203e-01,2.4560e-01,1.4011e-01
6.4000e+00,2.4075e-01,2.4256e-01,1.3815e-01
6.4500e+00,2.3861e-01,2.3956e-01,1.3621e-01
6.5000e+00,2.3636e-01,2.3659e-01,1.3431e-01
6.5500e+00,2.3440e-01,2.3367e-01,1.3244e-01
6.6000e+00,2.3205e-01,2.3078e-01,1.3061e-01
6.6500e+00,2.2914e-01,2.2794e-01,1.2881e-01
6.7000e+00,2.2602e-01,2.2513e-01,1.2704e-01
6.7500e+00,2.2270e-01,2.2235e-01,1.2530e-01
6.8000e+00,2.1884e-01,2.1962e-01,1.2359e-01
6.8500e+00,2.1496e-01,2.1692e-01,1.2191e-01
6.9000e+00,2.1060e-01,2.1425e-01,1.2026e-01
6.9500e+00,2.0590e-01,2.1163e-01,1.1864e-01
7.0000e+00,2.0124e-01,2.0903e-01,1.1705e-01
7.0500e+00,1.9677e-01,2.0648e-01,1.1548e-01
7.1000e+00,1.9267e-01,2.0395e-01,1.1394e-01
7.1500e+00,1.8887e-01,2.0146e-01,1.1243e-01
7.2000e+00,1.8554e-01,1.9901e-01,1.1095e-01
7.2500e+00,1.8255e-01,1.9659e-01,1.0949e-01
7.3000e+00,1.8007e-01,1.9420e-01,1.0805e-01
7.3500e+00,1.7793e-01,1.9184e-01,1.0664e-01
7.4000e+00,1.7620e-01,1.8952e-01,1.0525e-01
7.4500e+00,1.7490e-01,1.8723e-01,1.0389e-01
7.5000e+00,1.7404e-01,1.8496e-01,1.0255e-01
7.5500e+00,1.7379e-01,1.8274e-01,1.0123e-01
7.6000e+00,1.7368e-01,1.8054e-01,9.9932e-02
7.6500e+00,1.7369e-01,1.7837e-01,9.8658e-02
7.7000e+00,1.7360e-01,1.7623e-01,9.7405e-02
7.7500e+00,1.7371e-01,1.7413e-01,9.6173e-02
7.8000e+00,1.7357e-01,1.7205e-01,9.4961e-02
7.8500e+00,1.7311e-01,1.7000e-01,9.3770e-02
7.9000e+00,1.7244e-01,1.6798e-01,9.2599e-02
7.9500e+00,1.7155e-01,1.6599e-01,9.1446e-02
8.0000e+00,1.7031e-01,1.6403e-01,9.0313e-02
8.0500e+00,1.6886e-01,1.6209e-01,8.9199e-02
8.1000e+00,1.6736e-01,1.6018e-01,8.8103e-02
8.1500e+00,1.6548e-01,1.5830e-01,8.7025e-02
8.2000e+00,1.6358e-01,1.5645e-01,8.5965e-02
8.2500e+00,1.6192e-01,1.5462e-01,8.4922e-02
8.3000e+00,1.6017e-01,1.5282e-01,8.3896e-02
8.3500e+00,1.5841e-01,1.5105e-01,8.2887e-02
8.4000e+00,1.5655e-01,1.4930e-01,8.1894e-02
8.4500e+00,1.5475e-01,1.4758e-01,8.0917e-02
8.5000e+00,1.5288e-01,1.4588e-01,7.9956e-02
8.5500e+00,1.5108e-01,1.4421e-01,7.9011e-02
8.6000e+00,1.4937e-01,1.4256e-01,7.8081e-02
8.6500e+00,1.4772e-01,1.4093e-01,7.7166e-02
8.7000e+00,1.4603e-01,1.3933e-01,7.6266e-02
8.7500e+00,1.4425e-01,1.3775e-01,7.5380e-02
8.8000e+00,1.4213e-01,1.3620e-01,7.4508e-02
8.8500e+00,1.4049e-01,1.3467e-01,7.3651e-02
8.9000e+00,1.3843e-01,1.3316e-01,7.2807e-02
8.9500e+00,1.3632e-01,1.3167e-01,7.1976e-02
9.0000e+00,1.3397e-01,1.3021e-01,7.1159e-02
9.0500e+00,1.3179e-01,1.2876e-01,7.0354e-02
9.1000e+00,1.2950e-01,1.2734e-01,6.9563e-02
9.1500e+00,1.2720e-01,1.2594e-01,6.8783e-02
9.2000e+00,1.2501e-01,1.2456e-01,6.8017e-02
9.2500e+00,1.2284e-01,1.2320e-01,6.7262e-02
9.3000e+00,1.2064e-01,1.2186e-01,6.6519e-02
9.3500e+00,1.1864e-01,1.2054e-01,6.5787e-02
9.4000e+00,1.1672e-01,1.1924e-01,6.5067e-02
9.4500e+00,1.1478e-01,1.1796e-01,6.4359e-02
9.5000e+00,1.1294e-01,1.1670e-01,6.3661e-02
9.5500e+00,1.1121e-01,1.1546e-01,6.2974e-02
9.6000e+00,1.0966e-01,1.1423e-01,6.2298e-02
9.6500e+00,1.0819e-01,1.1303e-01,6.1632e-02
9.7000e+00,1.0683e-01,1.1184e-01,6.0976e-02
9.7500e+00,1.0557e-01,1.1067e-01,6.0331e-02
9.8000e+00,1.0435e-01,1.0952e-01,5.9695e-02
9.8500e+00,1.0315e-01,1.0838e-01,5.9069e-02
9.9000e+00,1.0214e-01,1.0726e-01,5.8453e-02
9.9500e+00,1.0121e-01,1.0616e-01,5.7846e-02
1.0000e+01,1.0028e-01,1.0507e-01,5.7248e-02
1.0050e+01,9.9425e-02,1.0400e-01,5.6660e-02
1.0100e+01,9.8566e-02,1.0295e-01,5.6080e-02
1.0150e+01,9.7726e-02,1.0191e-01,5.5509e-02
1.0200e+01,9.6960e-02,1.0089e-01,5.4946e-02
1.0250e+01,9.6155e-02,9.9880e-02,5.4392e-02
1.0300e+01,9.5244e-02,9.8887e-02,5.3846e-02
1.0350e+01,9.4414e-02,9.7909e-02,5.3309e-02
1.0400e+01,9.3546e-02,9.6945e-02,5.2779e-02
1.0450e+01,9.2649e-02,9.5995e-02,5.2257e-02
1.0500e+01,9.1769e-02,9.5059e-02,5.1743e-02
1.0550e+01,9.0845e-02,9.4137e-02,5.1236e-02
1.0600e+01,8.9862e-02,9.3228e-02,5.0737e-02
1.0650e+01,8.8993e-02,9.2333e-02,5.0245e-02
1.0700e+01,8.8082e-02,9.1450e-02,4.9760e-02
1.0750e+01,8.7124e-02,9.0580e-02,4.9282e-02
1.0800e+01,8.6266e-02,8.9723e-02,4.8811e-02
1.0850e+01,8.5398e-02,8.8878e-02,4.8347e-02
1.0900e+01,8.4563e-02,8.8046e-02,4.7890e-02
1.0950e+01,8.3702e-02,8.7225e-02,4.7439e-02
1.1000e+01,8.2833e-02,8.6416e-02,4.6995e-02
1.1050e+01,8.1941e-02,8.5619e-02,4.6557e-02
1.1100e+01,8.1146e-02,8.4833e-02,4.6125e-02
1.1150e+01,8.0388e-02,8.4058e-02,4.5699e-02
1.1200e+01,7.9643e-02,8.3294e-02,4.5280e-02
1.1250e+01,7.9027e-02,8.2540e-02,4.4866e-02
1.1300e+01,7.8457e-02,8.1798e-02,4.4458e-02
1.1350e+01,7.7966e-02,8.1065e-02,4.4055e-02
1.1400e+01,7.7505e-02,8.0343e-02,4.3658e-02
1.1450e+01,7.7089e-02,7.9631e-02,4.3267e-02
1.1500e+01,7.6780e-02,7.8929e-02,4.2881e-02
1.1550e+01,7.6520e-02,7.8236e-02,4.2501e-02
1.1600e+01,7.6300e-02,7.7553e-02,4.2125e-02
1.1650e+01,7.6104e-02,7.6880e-02,4.1755e-02
1.1700e+01,7.6041e-02,7.6215e-02,4.1390e-02
1.1750e+01,7.5977e-02,7.5559e-02,4.1029e-02
1.1800e+01,7.5976e-02,7.4913e-02,4.0674e-02
1.1850e+01,7.5958e-02,7.4275e-02,4.0323e-02
1.1900e+01,7.6007e-02,7.3645e-02,3.9977e-02
1.1950e+01,7.6078e-02,7.3024e-02,3.9635e-02
1.2000e+01,7.6614e-02,7.2411e-02,3.9298e-02
1.2050e+01,7.6791e-02,7.1806e-02,3.8966e-02
1.2100e+01,7.6594e-02,7.1209e-02,3.8638e-02
1.2150e+01,7.6300e-02,7.0619e-02,3.8314e-02
1.2200e+01,7.6030e-02,7.0038e-02,3.7994e-02
1.2250e+01,7.5750e-02,6.9464e-02,3.7679e-02
1.2300e+01,7.5419e-02,6.8897e-02,3.7367e-02
1.2350e+01,7.4977e-02,6.8337e-02,3.7060e-02
1.2400e+01,7.4423e-02,6.7785e-02,3.6757e-02
1.2450e+01,7.3852e-02,6.7239e-02,3.6457e-02
1.2500e+01,7.3227e-02,6.6700e-02,3.6161e-02
1.2550e+01,7.2545e-02,6.6168e-02,3.5869e-02
1.2600e+01,7.1798e-02,6.5643e-02,3.5581e-02
1.2650e+01,7.0983e-02,6.5124e-02,3.5296e-02
1.2700e+01,7.0139e-02,6.4611e-02,3.5015e-02
1.2750e+01,6.9246e-02,6.4105e-02,3.4737e-02
1.2800e+01,6.8444e-02,6.3604e-02,3.4463e-02
1.2850e+01,6.7464e-02,6.3110e-02,3.4192e-02
1.2900e+01,6.6459e-02,6.2621e-02,3.3924e-02
1.2950e+01,6.5531e-02,6.2139e-02,3.3660e-02
1.3000e+01,6.4575e-02,6.1662e-02,3.3398e-02
1.3050e+01,6.3705e-02,6.1190e-02,3.3140e-02
1.3100e+01,6.2837e-02,6.0724e-02,3.2885e-02
1.3150e+01,6.2032e-02,6.0264e-02,3.2633e-02
1.3200e+01,6.1223e-02,5.9809e-02,3.2385e-02
1.3250e+01,6.0447e-02,5.9358e-02,3.2139e-02
1.3300e+01,5.9653e-02,5.8913e-02,3.1896e-02
1.3350e+01,5.8834e-02,5.8473e-02,3.1655e-02
1.3400e+01,5.8102e-02,5.8038e-02,3.1418e-02
1.3450e+01,5.7345e-02,5.7608e-02,3.1183e-02
1.3500e+01,5.6611e-02,5.7182e-02,3.0951e-02
1.3550e+01,5.5988e-02,5.6761e-02,3.0722e-02
1.3600e+01,5.5354e-02,5.6345e-02,3.0495e-02
1.3650e+01,5.4617e-02,5.5933e-02,3.0271e-02
1.3700e+01,5.4077e-02,5.5526e-02,3.0050e-02
1.3750e+01,5.3611e-02,5.5122e-02,2.9831e-02
1.3800e+01,5.3134e-02,5.4723e-02,2.9614e-02
1.3850e+01,5.2650e-02,5.4329e-02,2.9400e-02
1.3900e+01,5.2207e-02,5.3938e-02,2.9188e-02
1.3950e+01,5.1796e-02,5.3551e-02,2.8979e-02
1.4000e+01,5.1396e-02,5.3169e-02,2.8772e-02
1.4050e+01,5.1008e-02,5.2790e-02,2.8567e-02
1.4100e+01,5.0677e-02,5.2415e-02,2.8364e-02
1.4150e+01,5.0344e-02,5.2044e-02,2.8164e-02
1.4200e+01,5.0050e-02,5.1676e-02,2.7965e-02
1.4250e+01,4.9772e-02,5.1312e-02,2.7769e-02
1.4300e+01,4.9455e-02,5.0952e-02,2.7575e-02
1.4350e+01,4.9170e-02,5.0595e-02,2.7383e-02
1.4400e+01,4.8865e-02,5.0241e-02,2.7193e-02
1.4450e+01,4.8586e-02,4.9891e-02,2.7005e-02
1.4500e+01,4.8210e-02,4.9545e-02,2.6819e-02
1.4550e+01,4.8034e-02,4.9201e-02,2.6635e-02
1.4600e+01,4.7782e-02,4.8861e-02,2.6453e-02
1.4650e+01,4.7506e-02,4.8524e-02,2.6272e-02
1.4700e+01,4.7140e-02,4.8190e-02,2.6094e-02
1.4750e+01,4.6951e-02,4.7860e-02,2.5917e-02
1.4800e+01,4.6646e-02,4.7532e-02,2.5742e-02
1.4850e+01,4.6368e-02,4.7207e-02,2.5569e-02
1.4900e+01,4.6054e-02,4.6885e-02,2.5398e-02
1.4950e+01,4.5709e-02,4.6566e-02,2.5228e-02
