#wavelength = 0.3494
#qmax = 15.0
#qmin = 0
#Qdamp = 0.04373
#Lorch = off
#Q, intensity(inelacstic), <f^2>, <f>^2
#
5.0000e-02,-8.9435e-03,1.5844e+00,9.6986e-01
1.0000e-01,-1.7887e-02,1.5824e+00,9.6862e-01
1.5000e-01,-2.6831e-02,1.5790e+00,9.6656e-01
2.0000e-01,-3.5774e-02,1.5743e+00,9.6370e-01
2.5000e-01,-4.4718e-02,1.5683e+00,9.6005e-01
3.0000e-01,-5.3661e-02,1.5611e+00,9.5564e-01
3.5000e-01,-6.2605e-02,1.5527e+00,9.5050e-01
4.0000e-01,-7.1548e-02,1.5433e+00,9.4466e-01
4.5000e-01,-8.0492e-02,1.5329e+00,9.3815e-01
5.0000e-01,-8.9435e-02,1.5215e+00,9.3102e-01
5.5000e-01,-9.8379e-02,1.5093e+00,9.2331e-01
6.0000e-01,-1.1089e-01,1.4963e+00,9.1505e-01
6.5000e-01,-1.0919e-01,1.4827e+00,9.0628e-01
7.0000e-01,-1.0201e-01,1.4685e+00,8.9706e-01
7.5000e-01,-9.0090e-02,1.4537e+00,8.8741e-01
8.0000e-01,-6.6090e-02,1.4384e+00,8.7738e-01
8.5000e-01,-3.8548e-02,1.4228e+00,8.6702e-01
9.0000e-01,-9.0770e-03,1.4068e+00,8.5636e-01
9.5000e-01,2.4593e-02,1.3906e+00,8.4543e-01
1.0000e+00,5.9688e-02,1.3741e+00,8.3427e-01
1.0500e+00,9.4697e-02,1.3574e+00,8.2292e-01
1.1000e+00,1.3419e-01,1.3406e+00,8.1141e-01
1.1500e+00,1.7802e-01,1.3237e+00,7.9976e-01
1.2000e+00,2.2346e-01,1.3066e+00,7.8801e-01
1.2500e+00,2.7780e-01,1.2896e+00,7.7617e-01
1.3000e+00,3.4220e-01,1.2725e+00,7.6429e-01
1.3500e+00,4.2143e-01,1.2553e+00,7.5237e-01
1.4000e+00,5.1423e-01,1.2382e+00,7.4044e-01
1.4500e+00,6.2620e-01,1.2212e+00,7.2852e-01
1.5000e+00,7.6219e-01,1.2041e+00,7.1663e-01
1.5500e+00,9.1959e-01,1.1872e+00,7.0478e-01
1.6000e+00,1.1001e+00,1.1703e+00,6.9299e-01
1.6500e+00,1.2962e+00,1.1535e+00,6.8128e-01
1.7000e+00,1.4879e+00,1.1368e+00,6.6965e-01
1.7500e+00,1.6555e+00,1.1203e+00,6.5812e-01
1.8000e+00,1.7739e+00,1.1038e+00,6.4670e-01
1.8500e+00,1.8293e+00,1.0875e+00,6.3540e-01
1.9000e+00,1.8120e+00,1.0714e+00,6.2423e-01
1.9500e+00,1.7253e+00,1.0554e+00,6.1319e-01
2.0000e+00,1.5952e+00,1.0396e+00,6.0229e-01
2.0500e+00,1.4443e+00,1.0240e+00,5.9154e-01
2.1000e+00,1.2952e+00,1.0086e+00,5.8095e-01
2.1500e+00,1.1604e+00,9.9337e-01,5.7051e-01
2.2000e+00,1.0457e+00,9.7835e-01,5.6024e-01
2.2500e+00,9.5029e-01,9.6353e-01,5.5013e-01
2.3000e+00,8.7636e-01,9.4894e-01,5.4018e-01
2.3500e+00,8.2250e-01,9.3456e-01,5.3041e-01
2.4000e+00,7.8536e-01,9.2041e-01,5.2081e-01
2.4500e+00,7.6263e-01,9.0648e-01,5.1137e-01
2.5000e+00,7.4909e-01,8.9278e-01,5.0212e-01
2.5500e+00,7.4461e-01,8.7932e-01,4.9303e-01
2.6000e+00,7.4294e-01,8.6608e-01,4.8411e-01
2.6500e+00,7.3722e-01,8.5308e-01,4.7537e-01
2.7000e+00,7.2312e-01,8.4032e-01,4.6680e-01
2.7500e+00,7.0065e-01,8.2778e-01,4.5840e-01
2.8000e+00,6.7383e-01,8.1548e-01,4.5017e-01
2.8500e+00,6.4910e-01,8.0341e-01,4.4210e-01
2.9000e+00,6.2837e-01,7.9157e-01,4.3420e-01
2.9500e+00,6.1275e-01,7.7996e-01,4.2646e-01
3.0000e+00,6.0288e-01,7.6857e-01,4.1888e-01
3.0500e+00,5.9746e-01,7.5741e-01,4.1146e-01
3.1000e+00,5.9911e-01,7.4646e-01,4.0420e-01
3.1500e+00,6.0084e-01,7.3574e-01,3.9709e-01
3.2000e+00,6.0595e-01,7.2522e-01,3.9013e-01
3.2500e+00,6.1484e-01,7.1491e-01,3.8333e-01
3.3000e+00,6.2590e-01,7.0481e-01,3.7666e-01
3.3500e+00,6.3776e-01,6.9492e-01,3.7014e-01
3.4000e+00,6.4913e-01,6.8522e-01,3.6376e-01
3.4500e+00,6.5885e-01,6.7571e-01,3.5752e-01
3.5000e+00,6.6666e-01,6.6639e-01,3.5141e-01
3.5500e+00,6.7211e-01,6.5726e-01,3.4544e-01
3.6000e+00,6.7564e-01,6.4830e-01,3.3959e-01
3.6500e+00,6.7732e-01,6.3952e-01,3.3387e-01
3.7000e+00,6.7145e-01,6.3092e-01,3.2827e-01
3.7500e+00,6.6485e-01,6.2248e-01,3.2279e-01
3.8000e+00,6.5713e-01,6.1420e-01,3.1742e-01
3.8500e+00,6.4676e-01,6.0608e-01,3.1217e-01
3.9000e+00,6.3507e-01,5.9811e-01,3.0704e-01
3.9500e+00,6.2316e-01,5.9029e-01,3.0201e-01
4.0000e+00,6.1111e-01,5.8261e-01,2.9709e-01
4.0500e+00,5.9943e-01,5.7508e-01,2.9227e-01
4.1000e+00,5.8932e-01,5.6768e-01,2.8755e-01
4.1500e+00,5.7902e-01,5.6041e-01,2.8293e-01
4.2000e+00,5.6993e-01,5.5328e-01,2.7840e-01
4.2500e+00,5.6142e-01,5.4626e-01,2.7397e-01
4.3000e+00,5.5572e-01,5.3937e-01,2.6963e-01
4.3500e+00,5.5264e-01,5.3259e-01,2.6538e-01
4.4000e+00,5.5251e-01,5.2593e-01,2.6121e-01
4.4500e+00,5.5262e-01,5.1937e-01,2.5713e-01
4.5000e+00,5.5501e-01,5.1293e-01,2.5313e-01
4.5500e+00,5.5863e-01,5.0658e-01,2.4921e-01
4.6000e+00,5.6317e-01,5.0034e-01,2.4537e-01
4.6500e+00,5.6756e-01,4.9419e-01,2.4161e-01
4.7000e+00,5.7122e-01,4.8813e-01,2.3791e-01
4.7500e+00,5.7425e-01,4.8217e-01,2.3429e-01
4.8000e+00,5.7559e-01,4.7630e-01,2.3074e-01
4.8500e+00,5.7197e-01,4.7051e-01,2.2726e-01
4.9000e+00,5.6817e-01,4.6481e-01,2.2385e-01
4.9500e+00,5.6035e-01,4.5919e-01,2.2050e-01
5.0000e+00,5.5002e-01,4.5365e-01,2.1721e-01
5.0500e+00,5.3816e-01,4.4819e-01,2.1399e-01
5.1000e+00,5.2443e-01,4.4280e-01,2.1083e-01
5.1500e+00,5.0945e-01,4.3748e-01,2.0773e-01
5.2000e+00,4.9328e-01,4.3224e-01,2.0468e-01
5.2500e+00,4.7656e-01,4.2707e-01,2.0169e-01
5.3000e+00,4.5981e-01,4.2196e-01,1.9876e-01
5.3500e+00,4.4467e-01,4.1693e-01,1.9588e-01
5.4000e+00,4.2972e-01,4.1196e-01,1.9305e-01
5.4500e+00,4.1495e-01,4.0705e-01,1.9028e-01
5.5000e+00,4.0272e-01,4.0221e-01,1.8755e-01
5.5500e+00,3.9220e-01,3.9742e-01,1.8488e-01
5.6000e+00,3.8313e-01,3.9270e-01,1.8225e-01
5.6500e+00,3.7542e-01,3.8804e-01,1.7967e-01
5.7000e+00,3.6948e-01,3.8344e-01,1.7714e-01
5.7500e+00,3.6265e-01,3.7889e-01,1.7465e-01
5.8000e+00,3.5703e-01,3.7441e-01,1.7220e-01
5.8500e+00,3.5258e-01,3.6997e-01,1.6980e-01
5.9000e+00,3.4868e-01,3.6559e-01,1.6744e-01
5.9500e+00,3.4544e-01,3.6127e-01,1.6512e-01
6.0000e+00,3.4256e-01,3.5700e-01,1.6285e-01
6.0500e+00,3.4021e-01,3.5278e-01,1.6061e-01
6.1000e+00,3.3804e-01,3.4862e-01,1.5841e-01
6.1500e+00,3.3623e-01,3.4450e-01,1.5625e-01
6.2000e+00,3.3488e-01,3.4044e-01,1.5413e-01
6.2500e+00,3.3284e-01,3.3642e-01,1.5204e-01
6.3000e+00,3.3084e-01,3.3246e-01,1.4999e-01
6.3500e+00,3.2890e-01,3.2855e-01,1.4797e-01
6.4000e+00,3.2677e-01,3.2468e-01,1.4599e-01
6.4500e+00,3.2469e-01,3.2086e-01,1.4404e-01
6.5000e+00,3.2249e-01,3.1709e-01,1.4213e-01
6.5500e+00,3.1865e-01,3.1337e-01,1.4024e-01
6.6000e+00,3.1510e-01,3.0969e-01,1.3839e-01
6.6500e+00,3.1056e-01,3.0606e-01,1.3657e-01
6.7000e+00,3.0599e-01,3.0247e-01,1.3478e-01
6.7500e+00,3.0114e-01,2.9893e-01,1.3302e-01
6.8000e+00,2.9600e-01,2.9544e-01,1.3129e-01
6.8500e+00,2.9065e-01,2.9199e-01,1.2959e-01
6.9000e+00,2.8541e-01,2.8858e-01,1.2792e-01
6.9500e+00,2.8048e-01,2.8521e-01,1.2627e-01
7.0000e+00,2.7460e-01,2.8189e-01,1.2466e-01
7.0500e+00,2.6952e-01,2.7862e-01,1.2306e-01
7.1000e+00,2.6494e-01,2.7538e-01,1.2150e-01
7.1500e+00,2.6085e-01,2.7219e-01,1.1996e-01
7.2000e+00,2.5747e-01,2.6904e-01,1.1845e-01
7.2500e+00,2.5384e-01,2.6593e-01,1.1696e-01
7.3000e+00,2.5107e-01,2.6286e-01,1.1549e-01
7.3500e+00,2.4832e-01,2.5983e-01,1.1405e-01
7.4000e+00,2.4630e-01,2.5684e-01,1.1263e-01
7.4500e+00,2.4456e-01,2.5389e-01,1.1124e-01
7.5000e+00,2.4323e-01,2.5098e-01,1.0987e-01
7.5500e+00,2.4204e-01,2.4811e-01,1.0852e-01
7.6000e+00,2.4126e-01,2.4528e-01,1.0719e-01
7.6500e+00,2.4026e-01,2.4249e-01,1.0588e-01
7.7000e+00,2.3943e-01,2.3973e-01,1.0460e-01
7.7500e+00,2.3868e-01,2.3701e-01,1.0333e-01
7.8000e+00,2.3805e-01,2.3433e-01,1.0209e-01
7.8500e+00,2.3758e-01,2.3169e-01,1.0087e-01
7.9000e+00,2.3610e-01,2.2908e-01,9.9661e-02
7.9500e+00,2.3470e-01,2.2651e-01,9.8476e-02
8.0000e+00,2.3314e-01,2.2397e-01,9.7310e-02
8.0500e+00,2.3163e-01,2.2147e-01,9.6162e-02
8.1000e+00,2.2991e-01,2.1900e-01,9.5032e-02
8.1500e+00,2.2807e-01,2.1657e-01,9.3920e-02
8.2000e+00,2.2677e-01,2.1417e-01,9.2826e-02
8.2500e+00,2.2427e-01,2.1181e-01,9.1749e-02
8.3000e+00,2.2171e-01,2.0947e-01,9.0690e-02
8.3500e+00,2.1934e-01,2.0718e-01,8.9647e-02
8.4000e+00,2.1723e-01,2.0491e-01,8.8620e-02
8.4500e+00,2.1498e-01,2.0268e-01,8.7610e-02
8.5000e+00,2.1175e-01,2.0047e-01,8.6615e-02
8.5500e+00,2.0901e-01,1.9830e-01,8.5636e-02
8.6000e+00,2.0619e-01,1.9616e-01,8.4672e-02
8.6500e+00,2.0317e-01,1.9405e-01,8.3724e-02
8.7000e+00,2.0047e-01,1.9198e-01,8.2790e-02
8.7500e+00,1.9771e-01,1.8993e-01,8.1870e-02
8.8000e+00,1.9485e-01,1.8791e-01,8.0965e-02
8.8500e+00,1.9193e-01,1.8592e-01,8.0074e-02
8.9000e+00,1.8907e-01,1.8395e-01,7.9197e-02
8.9500e+00,1.8634e-01,1.8202e-01,7.8333e-02
9.0000e+00,1.8373e-01,1.8011e-01,7.7483e-02
9.0500e+00,1.8110e-01,1.7823e-01,7.6645e-02
9.1000e+00,1.7816e-01,1.7638e-01,7.5821e-02
9.1500e+00,1.7554e-01,1.7456e-01,7.5009e-02
9.2000e+00,1.7299e-01,1.7276e-01,7.4210e-02
9.2500e+00,1.7057e-01,1.7099e-01,7.3422e-02
9.3000e+00,1.6845e-01,1.6924e-01,7.2647e-02
9.3500e+00,1.6595e-01,1.6752e-01,7.1883e-02
9.4000e+00,1.6359e-01,1.6582e-01,7.1131e-02
9.4500e+00,1.6147e-01,1.6415e-01,7.0391e-02
9.5000e+00,1.5983e-01,1.6250e-01,6.9661e-02
9.5500e+00,1.5763e-01,1.6088e-01,6.8943e-02
9.6000e+00,1.5561e-01,1.5928e-01,6.8235e-02
9.6500e+00,1.5376e-01,1.5770e-01,6.7538e-02
9.7000e+00,1.5197e-01,1.5615e-01,6.6851e-02
9.7500e+00,1.5035e-01,1.5461e-01,6.6175e-02
9.8000e+00,1.4899e-01,1.5310e-01,6.5508e-02
9.8500e+00,1.4739e-01,1.5162e-01,6.4852e-02
9.9000e+00,1.4588e-01,1.5015e-01,6.4205e-02
9.9500e+00,1.4456e-01,1.4870e-01,6.3568e-02
1.0000e+01,1.4358e-01,1.4728e-01,6.2940e-02
1.0050e+01,1.4210e-01,1.4587e-01,6.2321e-02
1.0100e+01,1.4064e-01,1.4449e-01,6.1711e-02
1.0150e+01,1.3929e-01,1.4312e-01,6.1110e-02
1.0200e+01,1.3805e-01,1.4178e-01,6.0518e-02
1.0250e+01,1.3680e-01,1.4045e-01,5.9934e-02
1.0300e+01,1.3572e-01,1.3914e-01,5.9359e-02
1.0350e+01,1.3429e-01,1.3785e-01,5.8792e-02
1.0400e+01,1.3302e-01,1.3658e-01,5.8233e-02
1.0450e+01,1.3191e-01,1.3533e-01,5.7682e-02
1.0500e+01,1.3059e-01,1.3409e-01,5.7139e-02
1.0550e+01,1.2918e-01,1.3287e-01,5.6603e-02
1.0600e+01,1.2788e-01,1.3167e-01,5.6076e-02
1.0650e+01,1.2661e-01,1.3048e-01,5.5555e-02
1.0700e+01,1.2533e-01,1.2932e-01,5.5042e-02
1.0750e+01,1.2422e-01,1.2816e-01,5.4536e-02
1.0800e+01,1.2290e-01,1.2703e-01,5.4037e-02
1.0850e+01,1.2168e-01,1.2590e-01,5.3545e-02
1.0900e+01,1.2071e-01,1.2480e-01,5.3060e-02
1.0950e+01,1.1958e-01,1.2371e-01,5.2581e-02
1.1000e+01,1.1833e-01,1.2263e-01,5.2109e-02
1.1050e+01,1.1720e-01,1.2157e-01,5.1643e-02
1.1100e+01,1.1615e-01,1.2052e-01,5.1184e-02
1.1150e+01,1.1524e-01,1.1949e-01,5.0731e-02
1.1200e+01,1.1458e-01,1.1847e-01,5.0284e-02
1.1250e+01,1.1332e-01,1.1746e-01,4.9843e-02
1.1300e+01,1.1249e-01,1.1647e-01,4.9408e-02
1.1350e+01,1.1194e-01,1.1549e-01,4.8978e-02
1.1400e+01,1.1105e-01,1.1452e-01,4.8554e-02
1.1450e+01,1.1029e-01,1.1356e-01,4.8136e-02
1.1500e+01,1.0960e-01,1.1262e-01,4.7724e-02
1.1550e+01,1.0906e-01,1.1169e-01,4.7316e-02
1.1600e+01,1.0853e-01,1.1077e-01,4.6914e-02
1.1650e+01,1.0808e-01,1.0986e-01,4.6518e-02
1.1700e+01,1.0765e-01,1.0897e-01,4.6126e-02
1.1750e+01,1.0734e-01,1.0808e-01,4.5739e-02
1.1800e+01,1.0703e-01,1.0721e-01,4.5357e-02
1.1850e+01,1.0662e-01,1.0634e-01,4.4981e-02
1.1900e+01,1.0618e-01,1.0549e-01,4.4608e-02
1.1950e+01,1.0583e-01,1.0465e-01,4.4241e-02
1.2000e+01,1.0556e-01,1.0382e-01,4.3878e-02
1.2050e+01,1.0529e-01,1.0299e-01,4.3519e-02
1.2100e+01,1.0480e-01,1.0218e-01,4.3166e-02
1.2150e+01,1.0487e-01,1.0138e-01,4.2816e-02
1.2200e+01,1.0499e-01,1.0059e-01,4.2471e-02
1.2250e+01,1.0411e-01,9.9803e-02,4.2129e-02
1.2300e+01,1.0332e-01,9.9028e-02,4.1792e-02
1.2350e+01,1.0252e-01,9.8262e-02,4.1459e-02
1.2400e+01,1.0184e-01,9.7505e-02,4.1130e-02
1.2450e+01,1.0107e-01,9.6756e-02,4.0805e-02
1.2500e+01,1.0023e-01,9.6016e-02,4.0484e-02
1.2550e+01,9.9552e-02,9.5284e-02,4.0167e-02
1.2600e+01,9.8669e-02,9.4560e-02,3.9853e-02
1.2650e+01,9.7555e-02,9.3844e-02,3.9543e-02
1.2700e+01,9.6595e-02,9.3136e-02,3.9237e-02
1.2750e+01,9.5686e-02,9.2436e-02,3.8934e-02
1.2800e+01,9.4885e-02,9.1743e-02,3.8634e-02
1.2850e+01,9.3811e-02,9.1058e-02,3.8338e-02
1.2900e+01,9.2854e-02,9.0380e-02,3.8046e-02
1.2950e+01,9.2104e-02,8.9709e-02,3.7756e-02
1.3000e+01,9.1074e-02,8.9045e-02,3.7470e-02
1.3050e+01,8.9906e-02,8.8388e-02,3.7188e-02
1.3100e+01,8.8918e-02,8.7737e-02,3.6908e-02
1.3150e+01,8.7963e-02,8.7093e-02,3.6631e-02
1.3200e+01,8.7089e-02,8.6456e-02,3.6358e-02
1.3250e+01,8.6156e-02,8.5825e-02,3.6087e-02
1.3300e+01,8.5470e-02,8.5200e-02,3.5819e-02
1.3350e+01,8.4697e-02,8.4582e-02,3.5554e-02
1.3400e+01,8.3845e-02,8.3969e-02,3.5292e-02
1.3450e+01,8.3106e-02,8.3362e-02,3.5033e-02
1.3500e+01,8.2372e-02,8.2762e-02,3.4777e-02
1.3550e+01,8.1770e-02,8.2167e-02,3.4523e-02
1.3600e+01,8.0897e-02,8.1577e-02,3.4272e-02
1.3650e+01,8.0248e-02,8.0993e-02,3.4024e-02
1.3700e+01,7.9620e-02,8.0415e-02,3.3778e-02
1.3750e+01,7.8910e-02,7.9841e-02,3.3535e-02
1.3800e+01,7.8291e-02,7.9273e-02,3.3294e-02
1.3850e+01,7.7478e-02,7.8710e-02,3.3055e-02
1.3900e+01,7.7170e-02,7.8153e-02,3.2819e-02
1.3950e+01,7.6623e-02,7.7600e-02,3.2586e-02
1.4000e+01,7.6148e-02,7.7052e-02,3.2355e-02
1.4050e+01,7.5752e-02,7.6508e-02,3.2126e-02
1.4100e+01,7.5245e-02,7.5970e-02,3.1899e-02
1.4150e+01,7.4752e-02,7.5436e-02,3.1675e-02
1.4200e+01,7.4340e-02,7.4907e-02,3.1453e-02
1.4250e+01,7.4007e-02,7.4382e-02,3.1233e-02
1.4300e+01,7.3523e-02,7.3862e-02,3.1015e-02
1.4350e+01,7.3212e-02,7.3346e-02,3.0799e-02
1.4400e+01,7.2837e-02,7.2834e-02,3.0585e-02
1.4450e+01,7.2381e-02,7.2326e-02,3.0373e-02
1.4500e+01,7.2031e-02,7.1823e-02,3.0164e-02
1.4550e+01,7.1691e-02,7.1323e-02,2.9956e-02
1.4600e+01,7.1341e-02,7.0828e-02,2.9750e-02
1.4650e+01,7.0977e-02,7.0337e-02,2.9546e-02
1.4700e+01,7.0691e-02,6.9849e-02,2.9345e-02
1.4750e+01,7.0330e-02,6.9365e-02,2.9144e-02
1.4800e+01,6.9903e-02,6.8885e-02,2.8946e-02
1.4850e+01,6.9539e-02,6.8409e-02,2.8750e-02
1.4900e+01,6.9165e-02,6.7937e-02,2.8555e-02
1.4950e+01,6.8813e-02,6.7468e-02,2.8362e-02
1.5000e+01,6.8466e-02,6.7002e-02,2.8171e-02
1.5050e+01,6.8133e-02,6.6540e-02,2.7982e-02
1.5100e+01,6.7736e-02,6.6082e-02,2.7794e-02
1.5150e+01,6.7346e-02,6.5627e-02,2.7608e-02
1.5200e+01,6.6960e-02,6.5175e-02,2.7423e-02
1.5250e+01,6.6582e-02,6.4727e-02,2.7240e-02
1.5300e+01,6.6140e-02,6.4281e-02,2.7059e-02
1.5350e+01,6.5933e-02,6.3839e-02,2.6879e-02
1.5400e+01,6.5462e-02,6.3401e-02,2.6701e-02
1.5450e+01,6.5056e-02,6.2965e-02,2.6525e-02
1.5500e+01,6.4659e-02,6.2533e-02,2.6349e-02
1.5550e+01,6.4376e-02,6.2103e-02,2.6176e-02
1.5600e+01,6.3871e-02,6.1677e-02,2.6004e-02
1.5650e+01,6.3485e-02,6.1253e-02,2.5833e-02
1.5700e+01,6.3075e-02,6.0833e-02,2.5664e-02
1.5750e+01,6.2610e-02,6.0415e-02,2.5496e-02
1.5800e+01,6.2192e-02,6.0001e-02,2.5329e-02
1.5850e+01,6.1823e-02,5.9589e-02,2.5164e-02
1.5900e+01,6.1413e-02,5.9180e-02,2.5000e-02
1.5950e+01,6.1040e-02,5.8774e-02,2.4838e-02
1.6000e+01,6.0683e-02,5.8370e-02,2.4677e-02
1.6050e+01,6.0268e-02,5.7969e-02,2.4517e-02
1.6100e+01,5.9840e-02,5.7571e-02,2.4358e-02
1.6150e+01,5.9519e-02,5.7176e-02,2.4201e-02
1.6200e+01,5.9074e-02,5.6783e-02,2.4045e-02
1.6250e+01,5.8654e-02,5.6393e-02,2.3890e-02
1.6300e+01,5.8248e-02,5.6005e-02,2.3737e-02
1.6350e+01,5.7800e-02,5.5620e-02,2.3584e-02
1.6400e+01,5.7305e-02,5.5238e-02,2.3433e-02
1.6450e+01,5.6879e-02,5.4858e-02,2.3283e-02
1.6500e+01,5.6353e-02,5.4480e-02,2.3135e-02
1.6550e+01,5.5864e-02,5.4105e-02,2.2987e-02
1.6600e+01,5.5358e-02,5.3732e-02,2.2840e-02
1.6650e+01,5.4789e-02,5.3362e-02,2.2695e-02
1.6700e+01,5.4244e-02,5.2994e-02,2.2551e-02
1.6750e+01,5.3686e-02,5.2629e-02,2.2408e-02
1.6800e+01,5.3116e-02,5.2266e-02,2.2265e-02
1.6850e+01,5.2546e-02,5.1905e-02,2.2124e-02
1.6900e+01,5.1927e-02,5.1546e-02,2.1984e-02
1.6950e+01,5.1277e-02,5.1190e-02,2.1846e-02
1.7000e+01,5.0632e-02,5.0836e-02,2.1708e-02
