#wavelength = 0.3494
#qmax = 15.0
#qmin = 0
#Qdamp = 0.04373
#Lorch = off
#
5.0000e-02,-1.4113e+02
1.0000e-01,-2.8225e+02
1.5000e-01,-4.2338e+02
2.0000e-01,-5.6451e+02
2.5000e-01,-7.0564e+02
3.0000e-01,-8.4676e+02
3.5000e-01,-9.8789e+02
4.0000e-01,-1.1290e+03
4.5000e-01,-1.2701e+03
5.0000e-01,-1.4113e+03
5.5000e-01,-1.5524e+03
6.0000e-01,-1.7497e+03
6.5000e-01,-1.7230e+03
7.0000e-01,-1.6098e+03
7.5000e-01,-1.4216e+03
8.0000e-01,-1.0429e+03
8.5000e-01,-6.0828e+02
9.0000e-01,-1.4323e+02
9.5000e-01,3.8808e+02
1.0000e+00,9.4187e+02
1.0500e+00,1.4943e+03
1.1000e+00,2.1175e+03
1.1500e+00,2.8092e+03
1.2000e+00,3.5262e+03
1.2500e+00,4.3837e+03
1.3000e+00,5.3999e+03
1.3500e+00,6.6501e+03
1.4000e+00,8.1144e+03
1.4500e+00,9.8813e+03
1.5000e+00,1.2027e+04
1.5500e+00,1.4511e+04
1.6000e+00,1.7360e+04
1.6500e+00,2.0454e+04
1.7000e+00,2.3479e+04
1.7500e+00,2.6123e+04
1.8000e+00,2.7991e+04
1.8500e+00,2.8866e+04
1.9000e+00,2.8594e+04
1.9500e+00,2.7224e+04
2.0000e+00,2.5172e+04
2.0500e+00,2.2790e+04
2.1000e+00,2.0438e+04
2.1500e+00,1.8311e+04
2.2000e+00,1.6501e+04
2.2500e+00,1.4995e+04
2.3000e+00,1.3829e+04
2.3500e+00,1.2979e+04
2.4000e+00,1.2393e+04
2.4500e+00,1.2034e+04
2.5000e+00,1.1820e+04
2.5500e+00,1.1750e+04
2.6000e+00,1.1723e+04
2.6500e+00,1.1633e+04
2.7000e+00,1.1411e+04
2.7500e+00,1.1056e+04
2.8000e+00,1.0633e+04
2.8500e+00,1.0243e+04
2.9000e+00,9.9156e+03
2.9500e+00,9.6691e+03
3.0000e+00,9.5133e+03
3.0500e+00,9.4278e+03
3.1000e+00,9.4539e+03
3.1500e+00,9.4812e+03
3.2000e+00,9.5618e+03
3.2500e+00,9.7020e+03
3.3000e+00,9.8765e+03
3.3500e+00,1.0064e+04
3.4000e+00,1.0243e+04
3.4500e+00,1.0397e+04
3.5000e+00,1.0520e+04
3.5500e+00,1.0606e+04
3.6000e+00,1.0662e+04
3.6500e+00,1.0688e+04
3.7000e+00,1.0595e+04
3.7500e+00,1.0491e+04
3.8000e+00,1.0369e+04
3.8500e+00,1.0206e+04
3.9000e+00,1.0021e+04
3.9500e+00,9.8334e+03
4.0000e+00,9.6432e+03
4.0500e+00,9.4589e+03
4.1000e+00,9.2993e+03
4.1500e+00,9.1368e+03
4.2000e+00,8.9934e+03
4.2500e+00,8.8591e+03
4.3000e+00,8.7691e+03
4.3500e+00,8.7206e+03
4.4000e+00,8.7185e+03
4.4500e+00,8.7203e+03
4.5000e+00,8.7580e+03
4.5500e+00,8.8151e+03
4.6000e+00,8.8867e+03
4.6500e+00,8.9560e+03
4.7000e+00,9.0137e+03
4.7500e+00,9.0615e+03
4.8000e+00,9.0827e+03
4.8500e+00,9.0257e+03
4.9000e+00,8.9657e+03
4.9500e+00,8.8423e+03
5.0000e+00,8.6792e+03
5.0500e+00,8.4921e+03
5.1000e+00,8.2754e+03
5.1500e+00,8.0391e+03
5.2000e+00,7.7839e+03
5.2500e+00,7.5200e+03
5.3000e+00,7.2558e+03
5.3500e+00,7.0168e+03
5.4000e+00,6.7810e+03
5.4500e+00,6.5478e+03
5.5000e+00,6.3548e+03
5.5500e+00,6.1889e+03
5.6000e+00,6.0457e+03
5.6500e+00,5.9241e+03
5.7000e+00,5.8303e+03
5.7500e+00,5.7225e+03
5.8000e+00,5.6339e+03
5.8500e+00,5.5637e+03
5.9000e+00,5.5021e+03
5.9500e+00,5.4509e+03
6.0000e+00,5.4055e+03
6.0500e+00,5.3684e+03
6.1000e+00,5.3342e+03
6.1500e+00,5.3057e+03
6.2000e+00,5.2843e+03
6.2500e+00,5.2521e+03
6.3000e+00,5.2206e+03
6.3500e+00,5.1900e+03
6.4000e+00,5.1563e+03
6.4500e+00,5.1235e+03
6.5000e+00,5.0888e+03
6.5500e+00,5.0282e+03
6.6000e+00,4.9722e+03
6.6500e+00,4.9006e+03
6.7000e+00,4.8285e+03
6.7500e+00,4.7519e+03
6.8000e+00,4.6709e+03
6.8500e+00,4.5863e+03
6.9000e+00,4.5037e+03
6.9500e+00,4.4260e+03
7.0000e+00,4.3332e+03
7.0500e+00,4.2529e+03
7.1000e+00,4.1807e+03
7.1500e+00,4.1162e+03
7.2000e+00,4.0629e+03
7.2500e+00,4.0055e+03
7.3000e+00,3.9618e+03
7.3500e+00,3.9185e+03
7.4000e+00,3.8866e+03
7.4500e+00,3.8590e+03
7.5000e+00,3.8382e+03
7.5500e+00,3.8194e+03
7.6000e+00,3.8070e+03
7.6500e+00,3.7913e+03
7.7000e+00,3.7781e+03
7.7500e+00,3.7664e+03
7.8000e+00,3.7564e+03
7.8500e+00,3.7490e+03
7.9000e+00,3.7256e+03
7.9500e+00,3.7035e+03
8.0000e+00,3.6789e+03
8.0500e+00,3.6551e+03
8.1000e+00,3.6279e+03
8.1500e+00,3.5989e+03
8.2000e+00,3.5784e+03
8.2500e+00,3.5389e+03
8.3000e+00,3.4985e+03
8.3500e+00,3.4612e+03
8.4000e+00,3.4279e+03
8.4500e+00,3.3923e+03
8.5000e+00,3.3413e+03
8.5500e+00,3.2982e+03
8.6000e+00,3.2536e+03
8.6500e+00,3.2059e+03
8.7000e+00,3.1634e+03
8.7500e+00,3.1199e+03
8.8000e+00,3.0747e+03
8.8500e+00,3.0286e+03
8.9000e+00,2.9835e+03
8.9500e+00,2.9403e+03
9.0000e+00,2.8993e+03
9.0500e+00,2.8578e+03
9.1000e+00,2.8113e+03
9.1500e+00,2.7700e+03
9.2000e+00,2.7297e+03
9.2500e+00,2.6915e+03
9.3000e+00,2.6582e+03
9.3500e+00,2.6187e+03
9.4000e+00,2.5814e+03
9.4500e+00,2.5479e+03
9.5000e+00,2.5221e+03
9.5500e+00,2.4874e+03
9.6000e+00,2.4555e+03
9.6500e+00,2.4263e+03
9.7000e+00,2.3981e+03
9.7500e+00,2.3725e+03
9.8000e+00,2.3510e+03
9.8500e+00,2.3259e+03
9.9000e+00,2.3019e+03
9.9500e+00,2.2811e+03
1.0000e+01,2.2657e+03
1.0050e+01,2.2424e+03
1.0100e+01,2.2192e+03
1.0150e+01,2.1980e+03
1.0200e+01,2.1784e+03
1.0250e+01,2.1587e+03
1.0300e+01,2.1417e+03
1.0350e+01,2.1190e+03
1.0400e+01,2.0991e+03
1.0450e+01,2.0815e+03
1.0500e+01,2.0608e+03
1.0550e+01,2.0384e+03
1.0600e+01,2.0179e+03
1.0650e+01,1.9979e+03
1.0700e+01,1.9776e+03
1.0750e+01,1.9602e+03
1.0800e+01,1.9393e+03
1.0850e+01,1.9201e+03
1.0900e+01,1.9047e+03
1.0950e+01,1.8870e+03
1.1000e+01,1.8672e+03
1.1050e+01,1.8494e+03
1.1100e+01,1.8328e+03
1.1150e+01,1.8185e+03
1.1200e+01,1.8080e+03
1.1250e+01,1.7882e+03
1.1300e+01,1.7751e+03
1.1350e+01,1.7663e+03
1.1400e+01,1.7523e+03
1.1450e+01,1.7404e+03
1.1500e+01,1.7295e+03
1.1550e+01,1.7209e+03
1.1600e+01,1.7125e+03
1.1650e+01,1.7055e+03
1.1700e+01,1.6987e+03
1.1750e+01,1.6938e+03
1.1800e+01,1.6889e+03
1.1850e+01,1.6825e+03
1.1900e+01,1.6756e+03
1.1950e+01,1.6700e+03
1.2000e+01,1.6658e+03
1.2050e+01,1.6614e+03
1.2100e+01,1.6538e+03
1.2150e+01,1.6548e+03
1.2200e+01,1.6567e+03
1.2250e+01,1.6429e+03
1.2300e+01,1.6303e+03
1.2350e+01,1.6177e+03
1.2400e+01,1.6070e+03
1.2450e+01,1.5948e+03
1.2500e+01,1.5817e+03
1.2550e+01,1.5709e+03
1.2600e+01,1.5570e+03
1.2650e+01,1.5394e+03
1.2700e+01,1.5243e+03
1.2750e+01,1.5099e+03
1.2800e+01,1.4973e+03
1.2850e+01,1.4803e+03
1.2900e+01,1.4652e+03
1.2950e+01,1.4534e+03
1.3000e+01,1.4371e+03
1.3050e+01,1.4187e+03
1.3100e+01,1.4031e+03
1.3150e+01,1.3880e+03
1.3200e+01,1.3743e+03
1.3250e+01,1.3595e+03
1.3300e+01,1.3487e+03
1.3350e+01,1.3365e+03
1.3400e+01,1.3231e+03
1.3450e+01,1.3114e+03
1.3500e+01,1.2998e+03
1.3550e+01,1.2903e+03
1.3600e+01,1.2765e+03
1.3650e+01,1.2663e+03
1.3700e+01,1.2564e+03
1.3750e+01,1.2452e+03
1.3800e+01,1.2354e+03
1.3850e+01,1.2226e+03
1.3900e+01,1.2177e+03
1.3950e+01,1.2091e+03
1.4000e+01,1.2016e+03
1.4050e+01,1.1954e+03
1.4100e+01,1.1873e+03
1.4150e+01,1.1796e+03
1.4200e+01,1.1731e+03
1.4250e+01,1.1678e+03
1.4300e+01,1.1602e+03
1.4350e+01,1.1553e+03
1.4400e+01,1.1494e+03
1.4450e+01,1.1422e+03
1.4500e+01,1.1366e+03
1.4550e+01,1.1313e+03
1.4600e+01,1.1257e+03
1.4650e+01,1.1200e+03
1.4700e+01,1.1155e+03
1.4750e+01,1.1098e+03
1.4800e+01,1.1031e+03
1.4850e+01,1.0973e+03
1.4900e+01,1.0914e+03
1.4950e+01,1.0859e+03
1.5000e+01,1.0804e+03
1.5050e+01,1.0751e+03
1.5100e+01,1.0689e+03
1.5150e+01,1.0627e+03
1.5200e+01,1.0566e+03
1.5250e+01,1.0507e+03
1.5300e+01,1.0437e+03
1.5350e+01,1.0404e+03
1.5400e+01,1.0330e+03
1.5450e+01,1.0266e+03
1.5500e+01,1.0203e+03
1.5550e+01,1.0158e+03
1.5600e+01,1.0079e+03
1.5650e+01,1.0018e+03
1.5700e+01,9.9531e+02
1.5750e+01,9.8798e+02
1.5800e+01,9.8138e+02
1.5850e+01,9.7556e+02
1.5900e+01,9.6909e+02
1.5950e+01,9.6319e+02
1.6000e+01,9.5757e+02
1.6050e+01,9.5101e+02
1.6100e+01,9.4426e+02
1.6150e+01,9.3920e+02
1.6200e+01,9.3218e+02
1.6250e+01,9.2555e+02
1.6300e+01,9.1915e+02
1.6350e+01,9.1208e+02
1.6400e+01,9.0427e+02
1.6450e+01,8.9754e+02
1.6500e+01,8.8925e+02
1.6550e+01,8.8152e+02
1.6600e+01,8.7354e+02
1.6650e+01,8.6457e+02
1.6700e+01,8.5596e+02
1.6750e+01,8.4715e+02
1.6800e+01,8.3816e+02
1.6850e+01,8.2917e+02
1.6900e+01,8.1940e+02
1.6950e+01,8.0914e+02
1.7000e+01,7.9897e+02
